Data from Absorbance__47__15-29-09-010.txt Node

Date: Wed May 05 15:29:09 CEST 2021
User: thoma
Spectrometer: FLMS06037
Trigger mode: 0
Integration Time (sec): 1,451500E-1
Scans to average: 10
Electric dark correction enabled: true
Nonlinearity correction enabled: false
Boxcar width: 0
XAxis mode: Wavelengths
Number of Pixels in Spectrum: 2048
>>>>>Begin Spectral Data<<<<<
187,642	-0
188,109	-0
188,576	-0
189,043	-0
189,51	-0,21
189,976	-0,05
190,443	-0,48
190,91	0,12
191,376	0,22
191,843	1,13
192,309	0,98
192,776	0,24
193,242	-0
193,708	-0
194,175	0,53
194,641	-0,32
195,107	-0,02
195,573	0,42
196,039	0,03
196,505	0,13
196,971	-0
197,437	-0
197,903	0,09
198,369	0,15
198,835	0,16
199,301	0,18
199,766	0,17
200,232	0,16
200,698	0,16
201,163	0,16
201,629	0,17
202,094	0,17
202,56	0,17
203,025	0,16
203,49	0,19
203,956	0,17
204,421	0,18
204,886	0,18
205,351	0,17
205,816	0,18
206,281	0,18
206,746	0,19
207,211	0,19
207,676	0,19
208,141	0,19
208,606	0,17
209,071	0,2
209,536	0,23
210	0,22
210,465	0,24
210,929	0,24
211,394	0,26
211,859	0,28
212,323	0,3
212,787	0,33
213,252	0,36
213,716	0,37
214,18	0,4
214,645	0,45
215,109	0,48
215,573	0,54
216,037	0,56
216,501	0,62
216,965	0,66
217,429	0,72
217,893	0,77
218,357	0,83
218,82	0,88
219,284	0,93
219,748	1
220,211	1,04
220,675	1,09
221,139	1,14
221,602	1,19
222,066	1,22
222,529	1,23
222,992	1,29
223,456	1,33
223,919	1,35
224,382	1,41
224,845	1,42
225,308	1,42
225,772	1,46
226,235	1,48
226,698	1,49
227,16	1,51
227,623	1,53
228,086	1,53
228,549	1,53
229,012	1,55
229,474	1,56
229,937	1,57
230,4	1,57
230,862	1,58
231,325	1,57
231,787	1,58
232,25	1,59
232,712	1,59
233,174	1,56
233,637	1,59
234,099	1,59
234,561	1,6
235,023	1,58
235,485	1,58
235,947	1,59
236,409	1,58
236,871	1,57
237,333	1,58
237,795	1,58
238,257	1,57
238,718	1,58
239,18	1,58
239,642	1,56
240,103	1,57
240,565	1,56
241,026	1,58
241,488	1,57
241,949	1,57
242,411	1,58
242,872	1,58
243,333	1,56
243,795	1,56
244,256	1,55
244,717	1,55
245,178	1,56
245,639	1,55
246,1	1,54
246,561	1,56
247,022	1,58
247,483	1,58
247,943	1,6
248,404	1,6
248,865	1,59
249,325	1,6
249,786	1,61
250,247	1,62
250,707	1,59
251,168	1,61
251,628	1,62
252,088	1,61
252,549	1,63
253,009	1,61
253,469	1,63
253,929	1,61
254,389	1,62
254,849	1,63
255,309	1,62
255,769	1,64
256,229	1,64
256,689	1,65
257,149	1,65
257,609	1,68
258,069	1,66
258,528	1,66
258,988	1,68
259,448	1,68
259,907	1,67
260,367	1,69
260,826	1,68
261,285	1,67
261,745	1,69
262,204	1,7
262,663	1,66
263,122	1,67
263,582	1,68
264,041	1,7
264,5	1,71
264,959	1,7
265,418	1,71
265,877	1,69
266,336	1,7
266,794	1,7
267,253	1,71
267,712	1,71
268,171	1,7
268,629	1,68
269,088	1,7
269,546	1,71
270,005	1,71
270,463	1,71
270,922	1,69
271,38	1,67
271,838	1,69
272,296	1,68
272,755	1,7
273,213	1,69
273,671	1,69
274,129	1,68
274,587	1,69
275,045	1,7
275,503	1,69
275,961	1,71
276,418	1,7
276,876	1,69
277,334	1,68
277,791	1,68
278,249	1,69
278,707	1,68
279,164	1,71
279,622	1,68
280,079	1,69
280,536	1,7
280,994	1,71
281,451	1,69
281,908	1,7
282,365	1,68
282,822	1,68
283,28	1,68
283,737	1,68
284,193	1,7
284,65	1,69
285,107	1,68
285,564	1,71
286,021	1,71
286,478	1,7
286,934	1,66
287,391	1,68
287,848	1,66
288,304	1,67
288,761	1,64
289,217	1,68
289,673	1,66
290,13	1,69
290,586	1,68
291,042	1,68
291,498	1,68
291,955	1,66
292,411	1,68
292,867	1,65
293,323	1,67
293,779	1,66
294,235	1,66
294,69	1,67
295,146	1,67
295,602	1,65
296,058	1,66
296,513	1,66
296,969	1,66
297,424	1,67
297,88	1,65
298,335	1,64
298,791	1,64
299,246	1,63
299,701	1,63
300,157	1,63
300,612	1,63
301,067	1,64
301,522	1,64
301,977	1,62
302,432	1,62
302,887	1,64
303,342	1,62
303,797	1,63
304,252	1,62
304,707	1,64
305,161	1,63
305,616	1,63
306,071	1,64
306,525	1,63
306,98	1,63
307,434	1,62
307,889	1,65
308,343	1,64
308,797	1,61
309,252	1,62
309,706	1,61
310,16	1,64
310,614	1,65
311,068	1,63
311,522	1,62
311,976	1,59
312,43	1,63
312,884	1,6
313,338	1,61
313,792	1,62
314,245	1,61
314,699	1,62
315,153	1,59
315,606	1,59
316,06	1,59
316,513	1,6
316,967	1,58
317,42	1,59
317,873	1,58
318,327	1,6
318,78	1,58
319,233	1,59
319,686	1,58
320,139	1,58
320,592	1,59
321,045	1,57
321,498	1,57
321,951	1,56
322,404	1,57
322,857	1,58
323,31	1,56
323,762	1,54
324,215	1,54
324,667	1,52
325,12	1,5
325,573	1,52
326,025	1,49
326,477	1,51
326,93	1,53
327,382	1,58
327,834	1,6
328,286	1,59
328,739	1,58
329,191	1,58
329,643	1,59
330,095	1,56
330,547	1,55
330,999	1,52
331,45	1,54
331,902	1,55
332,354	1,54
332,806	1,53
333,257	1,52
333,709	1,53
334,16	1,52
334,612	1,53
335,063	1,51
335,515	1,53
335,966	1,54
336,417	1,56
336,869	1,56
337,32	1,55
337,771	1,53
338,222	1,51
338,673	1,48
339,124	1,45
339,575	1,45
340,026	1,45
340,477	1,45
340,928	1,46
341,378	1,47
341,829	1,45
342,28	1,47
342,73	1,43
343,181	1,45
343,631	1,46
344,082	1,44
344,532	1,45
344,982	1,44
345,433	1,45
345,883	1,43
346,333	1,43
346,783	1,43
347,233	1,43
347,683	1,45
348,133	1,44
348,583	1,44
349,033	1,43
349,483	1,45
349,933	1,43
350,383	1,42
350,832	1,43
351,282	1,41
351,732	1,43
352,181	1,42
352,631	1,4
353,08	1,41
353,529	1,43
353,979	1,39
354,428	1,4
354,877	1,41
355,327	1,41
355,776	1,4
356,225	1,38
356,674	1,37
357,123	1,37
357,572	1,37
358,021	1,38
358,469	1,36
358,918	1,37
359,367	1,38
359,816	1,36
360,264	1,36
360,713	1,37
361,161	1,36
361,61	1,38
362,058	1,34
362,507	1,34
362,955	1,31
363,403	1,33
363,852	1,34
364,3	1,34
364,748	1,35
365,196	1,33
365,644	1,34
366,092	1,33
366,54	1,32
366,988	1,31
367,436	1,32
367,883	1,32
368,331	1,3
368,779	1,31
369,226	1,3
369,674	1,3
370,121	1,3
370,569	1,29
371,016	1,28
371,464	1,28
371,911	1,27
372,358	1,28
372,805	1,27
373,253	1,25
373,7	1,28
374,147	1,25
374,594	1,26
375,041	1,24
375,488	1,24
375,935	1,23
376,381	1,22
376,828	1,23
377,275	1,2
377,721	1,21
378,168	1,21
378,615	1,2
379,061	1,19
379,508	1,19
379,954	1,18
380,4	1,17
380,847	1,17
381,293	1,17
381,739	1,16
382,185	1,13
382,631	1,14
383,077	1,12
383,523	1,11
383,969	1,1
384,415	1,1
384,861	1,09
385,307	1,08
385,752	1,06
386,198	1,06
386,644	1,06
387,089	1,05
387,535	1,03
387,98	1,03
388,426	1,02
388,871	1,02
389,317	1,01
389,762	0,99
390,207	0,98
390,652	0,98
391,097	0,98
391,542	0,96
391,987	0,95
392,432	0,94
392,877	0,94
393,322	0,93
393,767	0,92
394,212	0,92
394,656	0,91
395,101	0,9
395,546	0,89
395,99	0,88
396,435	0,87
396,879	0,86
397,324	0,86
397,768	0,85
398,212	0,85
398,657	0,84
399,101	0,84
399,545	0,83
399,989	0,83
400,433	0,81
400,877	0,81
401,321	0,79
401,765	0,79
402,209	0,78
402,653	0,77
403,096	0,77
403,54	0,77
403,984	0,76
404,427	0,76
404,871	0,74
405,314	0,74
405,758	0,74
406,201	0,73
406,644	0,73
407,088	0,72
407,531	0,72
407,974	0,71
408,417	0,7
408,86	0,7
409,303	0,7
409,746	0,69
410,189	0,69
410,632	0,68
411,075	0,68
411,517	0,68
411,96	0,67
412,403	0,66
412,845	0,66
413,288	0,65
413,73	0,65
414,173	0,64
414,615	0,63
415,058	0,63
415,5	0,62
415,942	0,62
416,384	0,61
416,826	0,61
417,268	0,61
417,711	0,6
418,152	0,59
418,594	0,6
419,036	0,59
419,478	0,59
419,92	0,58
420,362	0,57
420,803	0,58
421,245	0,57
421,686	0,57
422,128	0,56
422,569	0,56
423,011	0,55
423,452	0,55
423,893	0,55
424,335	0,54
424,776	0,54
425,217	0,54
425,658	0,53
426,099	0,53
426,54	0,53
426,981	0,52
427,422	0,52
427,863	0,52
428,304	0,51
428,744	0,51
429,185	0,5
429,626	0,5
430,066	0,5
430,507	0,49
430,947	0,49
431,388	0,49
431,828	0,49
432,268	0,48
432,709	0,48
433,149	0,47
433,589	0,47
434,029	0,46
434,469	0,46
434,909	0,46
435,349	0,46
435,789	0,45
436,229	0,45
436,669	0,44
437,108	0,44
437,548	0,44
437,988	0,44
438,427	0,43
438,867	0,43
439,306	0,42
439,746	0,43
440,185	0,42
440,624	0,42
441,064	0,41
441,503	0,41
441,942	0,41
442,381	0,41
442,82	0,41
443,259	0,41
443,698	0,4
444,137	0,4
444,576	0,4
445,015	0,4
445,453	0,39
445,892	0,39
446,331	0,38
446,769	0,38
447,208	0,37
447,646	0,38
448,085	0,37
448,523	0,37
448,961	0,37
449,4	0,37
449,838	0,36
450,276	0,36
450,714	0,36
451,152	0,36
451,59	0,36
452,028	0,35
452,466	0,35
452,904	0,35
453,342	0,35
453,779	0,34
454,217	0,34
454,655	0,34
455,092	0,34
455,53	0,34
455,967	0,33
456,405	0,33
456,842	0,33
457,279	0,33
457,717	0,33
458,154	0,32
458,591	0,32
459,028	0,32
459,465	0,32
459,902	0,31
460,339	0,31
460,776	0,31
461,213	0,3
461,65	0,31
462,086	0,3
462,523	0,3
462,96	0,3
463,396	0,3
463,833	0,3
464,269	0,29
464,706	0,29
465,142	0,29
465,578	0,29
466,015	0,29
466,451	0,29
466,887	0,28
467,323	0,29
467,759	0,28
468,195	0,28
468,631	0,28
469,067	0,28
469,503	0,27
469,939	0,27
470,374	0,27
470,81	0,27
471,246	0,27
471,681	0,27
472,117	0,27
472,552	0,26
472,988	0,26
473,423	0,26
473,858	0,26
474,294	0,26
474,729	0,26
475,164	0,26
475,599	0,26
476,034	0,25
476,469	0,25
476,904	0,25
477,339	0,25
477,774	0,25
478,208	0,24
478,643	0,25
479,078	0,25
479,512	0,25
479,947	0,24
480,381	0,24
480,816	0,24
481,25	0,24
481,685	0,24
482,119	0,24
482,553	0,23
482,987	0,23
483,421	0,23
483,856	0,23
484,29	0,23
484,724	0,23
485,157	0,22
485,591	0,22
486,025	0,22
486,459	0,22
486,893	0,23
487,326	0,22
487,76	0,22
488,193	0,22
488,627	0,21
489,06	0,21
489,494	0,21
489,927	0,22
490,36	0,21
490,794	0,21
491,227	0,21
491,66	0,21
492,093	0,21
492,526	0,21
492,959	0,2
493,392	0,21
493,825	0,21
494,257	0,2
494,69	0,2
495,123	0,2
495,555	0,2
495,988	0,2
496,421	0,2
496,853	0,2
497,285	0,2
497,718	0,2
498,15	0,2
498,582	0,19
499,015	0,19
499,447	0,2
499,879	0,19
500,311	0,19
500,743	0,19
501,175	0,19
501,607	0,19
502,038	0,19
502,47	0,19
502,902	0,19
503,334	0,18
503,765	0,18
504,197	0,18
504,628	0,18
505,06	0,18
505,491	0,18
505,922	0,18
506,354	0,18
506,785	0,18
507,216	0,18
507,647	0,18
508,078	0,18
508,509	0,18
508,94	0,18
509,371	0,17
509,802	0,17
510,233	0,17
510,664	0,17
511,094	0,17
511,525	0,17
511,955	0,17
512,386	0,17
512,816	0,17
513,247	0,17
513,677	0,17
514,108	0,17
514,538	0,16
514,968	0,17
515,398	0,17
515,828	0,17
516,258	0,17
516,688	0,17
517,118	0,16
517,548	0,17
517,978	0,16
518,408	0,16
518,837	0,16
519,267	0,16
519,697	0,16
520,126	0,16
520,556	0,16
520,985	0,16
521,415	0,16
521,844	0,16
522,273	0,16
522,702	0,16
523,132	0,15
523,561	0,16
523,99	0,15
524,419	0,15
524,848	0,16
525,277	0,15
525,705	0,15
526,134	0,15
526,563	0,15
526,992	0,15
527,42	0,15
527,849	0,15
528,277	0,15
528,706	0,15
529,134	0,15
529,563	0,15
529,991	0,15
530,419	0,15
530,847	0,15
531,275	0,15
531,703	0,14
532,131	0,15
532,559	0,14
532,987	0,15
533,415	0,14
533,843	0,14
534,271	0,14
534,698	0,14
535,126	0,14
535,554	0,14
535,981	0,14
536,409	0,14
536,836	0,14
537,264	0,14
537,691	0,13
538,118	0,14
538,545	0,14
538,972	0,14
539,4	0,14
539,827	0,13
540,254	0,14
540,681	0,14
541,107	0,14
541,534	0,14
541,961	0,13
542,388	0,13
542,814	0,13
543,241	0,13
543,667	0,13
544,094	0,13
544,52	0,13
544,947	0,13
545,373	0,13
545,799	0,13
546,226	0,13
546,652	0,13
547,078	0,13
547,504	0,13
547,93	0,13
548,356	0,13
548,782	0,13
549,208	0,13
549,633	0,12
550,059	0,13
550,485	0,13
550,91	0,13
551,336	0,12
551,761	0,13
552,187	0,12
552,612	0,12
553,038	0,12
553,463	0,12
553,888	0,12
554,313	0,12
554,738	0,12
555,163	0,12
555,588	0,12
556,013	0,12
556,438	0,12
556,863	0,12
557,288	0,12
557,713	0,12
558,137	0,12
558,562	0,12
558,986	0,12
559,411	0,12
559,835	0,12
560,26	0,12
560,684	0,12
561,108	0,12
561,533	0,12
561,957	0,12
562,381	0,12
562,805	0,12
563,229	0,12
563,653	0,11
564,077	0,12
564,501	0,11
564,925	0,11
565,348	0,11
565,772	0,11
566,196	0,11
566,619	0,11
567,043	0,11
567,466	0,11
567,89	0,11
568,313	0,11
568,736	0,11
569,159	0,11
569,583	0,11
570,006	0,11
570,429	0,11
570,852	0,11
571,275	0,11
571,698	0,11
572,12	0,11
572,543	0,1
572,966	0,1
573,389	0,1
573,811	0,1
574,234	0,1
574,656	0,1
575,079	0,1
575,501	0,1
575,924	0,1
576,346	0,1
576,768	0,1
577,19	0,1
577,612	0,1
578,034	0,1
578,456	0,1
578,878	0,09
579,3	0,1
579,722	0,09
580,144	0,09
580,566	0,09
580,987	0,1
581,409	0,1
581,83	0,1
582,252	0,09
582,673	0,09
583,095	0,09
583,516	0,09
583,937	0,09
584,359	0,09
584,78	0,09
585,201	0,1
585,622	0,09
586,043	0,09
586,464	0,09
586,885	0,09
587,306	0,09
587,726	0,09
588,147	0,09
588,568	0,09
588,988	0,09
589,409	0,09
589,83	0,09
590,25	0,09
590,67	0,09
591,091	0,09
591,511	0,09
591,931	0,09
592,351	0,09
592,771	0,09
593,192	0,09
593,612	0,09
594,031	0,09
594,451	0,09
594,871	0,09
595,291	0,09
595,711	0,09
596,13	0,09
596,55	0,09
596,969	0,09
597,389	0,09
597,808	0,09
598,228	0,09
598,647	0,09
599,066	0,09
599,486	0,09
599,905	0,08
600,324	0,08
600,743	0,08
601,162	0,08
601,581	0,08
602	0,08
602,418	0,08
602,837	0,08
603,256	0,09
603,674	0,08
604,093	0,09
604,512	0,09
604,93	0,08
605,349	0,08
605,767	0,08
606,185	0,08
606,603	0,08
607,022	0,08
607,44	0,08
607,858	0,08
608,276	0,08
608,694	0,08
609,112	0,08
609,53	0,08
609,947	0,08
610,365	0,08
610,783	0,08
611,2	0,08
611,618	0,08
612,036	0,08
612,453	0,08
612,87	0,08
613,288	0,08
613,705	0,08
614,122	0,08
614,539	0,08
614,957	0,08
615,374	0,08
615,791	0,08
616,208	0,08
616,624	0,08
617,041	0,08
617,458	0,08
617,875	0,08
618,291	0,08
618,708	0,08
619,125	0,08
619,541	0,08
619,958	0,08
620,374	0,08
620,79	0,08
621,206	0,08
621,623	0,08
622,039	0,08
622,455	0,08
622,871	0,09
623,287	0,08
623,703	0,08
624,119	0,08
624,535	0,08
624,95	0,08
625,366	0,08
625,782	0,08
626,197	0,08
626,613	0,08
627,028	0,08
627,444	0,08
627,859	0,08
628,274	0,08
628,69	0,08
629,105	0,08
629,52	0,08
629,935	0,08
630,35	0,08
630,765	0,08
631,18	0,08
631,595	0,08
632,009	0,08
632,424	0,08
632,839	0,08
633,253	0,08
633,668	0,08
634,082	0,08
634,497	0,08
634,911	0,08
635,326	0,08
635,74	0,08
636,154	0,08
636,568	0,08
636,982	0,08
637,396	0,08
637,81	0,08
638,224	0,08
638,638	0,08
639,052	0,08
639,466	0,08
639,879	0,08
640,293	0,08
640,707	0,08
641,12	0,08
641,534	0,08
641,947	0,08
642,36	0,08
642,774	0,08
643,187	0,08
643,6	0,08
644,013	0,08
644,426	0,08
644,839	0,08
645,252	0,07
645,665	0,08
646,078	0,08
646,491	0,08
646,904	0,08
647,316	0,08
647,729	0,08
648,141	0,08
648,554	0,08
648,966	0,08
649,379	0,08
649,791	0,08
650,203	0,08
650,615	0,07
651,028	0,08
651,44	0,08
651,852	0,08
652,264	0,08
652,676	0,08
653,087	0,08
653,499	0,07
653,911	0,08
654,323	0,08
654,734	0,08
655,146	0,08
655,557	0,08
655,969	0,07
656,38	0,07
656,792	0,07
657,203	0,07
657,614	0,06
658,025	0,07
658,436	0,07
658,847	0,07
659,258	0,07
659,669	0,07
660,08	0,07
660,491	0,07
660,902	0,08
661,312	0,08
661,723	0,07
662,134	0,07
662,544	0,07
662,955	0,07
663,365	0,07
663,775	0,08
664,186	0,07
664,596	0,07
665,006	0,07
665,416	0,08
665,826	0,07
666,236	0,07
666,646	0,07
667,056	0,07
667,466	0,07
667,876	0,08
668,286	0,07
668,695	0,07
669,105	0,07
669,514	0,08
669,924	0,07
670,333	0,07
670,743	0,07
671,152	0,07
671,561	0,07
671,97	0,07
672,38	0,07
672,789	0,07
673,198	0,07
673,607	0,07
674,016	0,07
674,424	0,07
674,833	0,07
675,242	0,07
675,651	0,07
676,059	0,07
676,468	0,07
676,876	0,07
677,285	0,07
677,693	0,07
678,101	0,07
678,51	0,07
678,918	0,07
679,326	0,07
679,734	0,07
680,142	0,07
680,55	0,07
680,958	0,07
681,366	0,07
681,774	0,07
682,181	0,07
682,589	0,07
682,997	0,07
683,404	0,07
683,812	0,07
684,219	0,07
684,627	0,07
685,034	0,07
685,441	0,07
685,848	0,07
686,256	0,07
686,663	0,07
687,07	0,07
687,477	0,07
687,884	0,07
688,29	0,07
688,697	0,07
689,104	0,07
689,511	0,07
689,917	0,07
690,324	0,07
690,73	0,07
691,137	0,07
691,543	0,07
691,95	0,07
692,356	0,07
692,762	0,07
693,168	0,07
693,574	0,07
693,98	0,07
694,386	0,07
694,792	0,07
695,198	0,07
695,604	0,07
696,01	0,07
696,415	0,07
696,821	0,07
697,227	0,07
697,632	0,07
698,038	0,07
698,443	0,07
698,848	0,07
699,254	0,07
699,659	0,07
700,064	0,07
700,469	0,07
700,874	0,07
701,279	0,07
701,684	0,07
702,089	0,07
702,494	0,07
702,898	0,07
703,303	0,07
703,708	0,07
704,112	0,07
704,517	0,07
704,921	0,07
705,326	0,07
705,73	0,07
706,134	0,07
706,538	0,07
706,943	0,07
707,347	0,07
707,751	0,07
708,155	0,06
708,559	0,07
708,963	0,07
709,366	0,07
709,77	0,06
710,174	0,07
710,577	0,07
710,981	0,07
711,384	0,07
711,788	0,07
712,191	0,07
712,595	0,07
712,998	0,07
713,401	0,07
713,804	0,07
714,207	0,06
714,61	0,07
715,013	0,06
715,416	0,06
715,819	0,07
716,222	0,06
716,625	0,07
717,027	0,07
717,43	0,07
717,833	0,06
718,235	0,06
718,638	0,07
719,04	0,06
719,442	0,07
719,844	0,06
720,247	0,07
720,649	0,07
721,051	0,06
721,453	0,06
721,855	0,07
722,257	0,07
722,659	0,07
723,06	0,07
723,462	0,06
723,864	0,06
724,265	0,06
724,667	0,07
725,069	0,07
725,47	0,07
725,871	0,06
726,273	0,06
726,674	0,06
727,075	0,06
727,476	0,06
727,877	0,07
728,278	0,07
728,679	0,06
729,08	0,06
729,481	0,06
729,882	0,06
730,282	0,06
730,683	0,06
731,084	0,07
731,484	0,06
731,885	0,06
732,285	0,06
732,686	0,06
733,086	0,06
733,486	0,06
733,886	0,06
734,286	0,06
734,686	0,06
735,086	0,06
735,486	0,06
735,886	0,06
736,286	0,06
736,686	0,06
737,086	0,06
737,485	0,06
737,885	0,06
738,284	0,06
738,684	0,06
739,083	0,06
739,482	0,06
739,882	0,06
740,281	0,06
740,68	0,06
741,079	0,06
741,478	0,06
741,877	0,06
742,276	0,06
742,675	0,06
743,074	0,06
743,473	0,06
743,871	0,06
744,27	0,06
744,668	0,06
745,067	0,07
745,465	0,06
745,864	0,06
746,262	0,06
746,66	0,06
747,059	0,06
747,457	0,06
747,855	0,06
748,253	0,06
748,651	0,06
749,049	0,06
749,447	0,06
749,844	0,07
750,242	0,06
750,64	0,06
751,037	0,06
751,435	0,07
751,832	0,06
752,23	0,06
752,627	0,06
753,024	0,06
753,422	0,06
753,819	0,06
754,216	0,06
754,613	0,06
755,01	0,06
755,407	0,06
755,804	0,06
756,201	0,06
756,597	0,06
756,994	0,06
757,391	0,06
757,787	0,06
758,184	0,06
758,58	0,06
758,977	0,06
759,373	0,06
759,769	0,06
760,166	0,06
760,562	0,06
760,958	0,06
761,354	0,06
761,75	0,06
762,146	0,06
762,542	0,06
762,937	0,06
763,333	0,06
763,729	0,06
764,124	0,06
764,52	0,06
764,915	0,06
765,311	0,06
765,706	0,06
766,101	0,06
766,497	0,06
766,892	0,06
767,287	0,06
767,682	0,06
768,077	0,06
768,472	0,06
768,867	0,06
769,262	0,06
769,657	0,06
770,051	0,06
770,446	0,06
770,84	0,06
771,235	0,06
771,629	0,06
772,024	0,06
772,418	0,06
772,812	0,06
773,207	0,06
773,601	0,06
773,995	0,06
774,389	0,06
774,783	0,06
775,177	0,06
775,571	0,06
775,964	0,06
776,358	0,06
776,752	0,06
777,145	0,06
777,539	0,06
777,932	0,06
778,326	0,06
778,719	0,06
779,113	0,06
779,506	0,06
779,899	0,06
780,292	0,06
780,685	0,06
781,078	0,06
781,471	0,06
781,864	0,06
782,257	0,06
782,65	0,06
783,042	0,06
783,435	0,06
783,827	0,06
784,22	0,07
784,612	0,06
785,005	0,06
785,397	0,06
785,789	0,06
786,182	0,06
786,574	0,06
786,966	0,06
787,358	0,06
787,75	0,06
788,142	0,06
788,534	0,06
788,925	0,06
789,317	0,06
789,709	0,06
790,1	0,06
790,492	0,06
790,883	0,06
791,275	0,06
791,666	0,06
792,057	0,06
792,449	0,06
792,84	0,06
793,231	0,06
793,622	0,06
794,013	0,06
794,404	0,06
794,795	0,06
795,185	0,06
795,576	0,06
795,967	0,06
796,357	0,07
796,748	0,07
797,138	0,07
797,529	0,06
797,919	0,06
798,31	0,07
798,7	0,07
799,09	0,07
799,48	0,07
799,87	0,06
800,26	0,07
800,65	0,07
801,04	0,07
801,43	0,07
801,82	0,07
802,209	0,07
802,599	0,07
802,988	0,07
803,378	0,07
803,767	0,07
804,157	0,07
804,546	0,07
804,935	0,07
805,325	0,07
805,714	0,07
806,103	0,07
806,492	0,07
806,881	0,07
807,27	0,07
807,658	0,07
808,047	0,07
808,436	0,07
808,824	0,07
809,213	0,07
809,602	0,07
809,99	0,07
810,378	0,07
810,767	0,07
811,155	0,07
811,543	0,07
811,931	0,07
812,319	0,07
812,708	0,07
813,095	0,07
813,483	0,07
813,871	0,07
814,259	0,07
814,647	0,07
815,034	0,07
815,422	0,07
815,809	0,07
816,197	0,07
816,584	0,07
816,972	0,07
817,359	0,07
817,746	0,07
818,133	0,07
818,52	0,07
818,907	0,07
819,294	0,07
819,681	0,07
820,068	0,07
820,455	0,07
820,842	0,07
821,228	0,07
821,615	0,07
822,002	0,07
822,388	0,07
822,774	0,07
823,161	0,07
823,547	0,07
823,933	0,07
824,319	0,07
824,706	0,07
825,092	0,07
825,478	0,07
825,863	0,07
826,249	0,07
826,635	0,07
827,021	0,07
827,407	0,07
827,792	0,07
828,178	0,07
828,563	0,07
828,949	0,07
829,334	0,07
829,719	0,07
830,104	0,07
830,49	0,08
830,875	0,07
831,26	0,07
831,645	0,08
832,03	0,07
832,415	0,08
832,799	0,08
833,184	0,08
833,569	0,08
833,953	0,07
834,338	0,08
834,722	0,07
835,107	0,07
835,491	0,07
835,875	0,08
836,26	0,07
836,644	0,07
837,028	0,08
837,412	0,07
837,796	0,08
838,18	0,07
838,564	0,08
838,948	0,08
839,331	0,08
839,715	0,07
840,099	0,08
840,482	0,07
840,866	0,08
841,249	0,08
841,632	0,08
842,016	0,08
842,399	0,08
842,782	0,08
843,165	0,08
843,548	0,08
843,931	0,08
844,314	0,08
844,697	0,08
845,08	0,08
845,463	0,08
845,845	0,08
846,228	0,08
846,61	0,08
846,993	0,08
847,375	0,08
847,758	0,08
848,14	0,08
848,522	0,08
848,904	0,08
849,286	0,08
849,668	0,08
850,05	0,08
850,432	0,08
850,814	0,08
851,196	0,08
851,578	0,08
851,959	0,08
852,341	0,08
852,722	0,08
853,104	0,08
853,485	0,08
853,867	0,08
854,248	0,08
854,629	0,08
855,01	0,08
855,391	0,08
855,773	0,08
856,153	0,09
856,534	0,08
856,915	0,09
857,296	0,09
857,677	0,09
858,057	0,08
858,438	0,08
858,819	0,08
859,199	0,08
859,579	0,09
859,96	0,08
860,34	0,08
860,72	0,09
861,1	0,08
861,48	0,08
861,86	0,08
862,24	0,08
862,62	0,08
863	0,09
863,38	0,09
863,76	0,08
864,139	0,09
864,519	0,09
864,898	0,09
865,278	0,08
865,657	0,09
866,037	0,09
866,416	0,08
866,795	0,08
867,174	0,09
867,553	0,09
867,932	0,09
868,311	0,09
868,69	0,08
869,069	0,09
869,448	0,09
869,826	0,09
870,205	0,09
870,584	0,09
870,962	0,09
871,341	0,09
871,719	0,09
872,097	0,09
872,475	0,09
872,854	0,09
873,232	0,09
873,61	0,09
873,988	0,09
874,366	0,09
874,744	0,09
875,121	0,09
875,499	0,09
875,877	0,09
876,255	0,09
876,632	0,09
877,01	0,09
877,387	0,09
877,764	0,09
878,142	0,09
878,519	0,09
878,896	0,09
879,273	0,09
879,65	0,09
880,027	0,09
880,404	0,09
880,781	0,09
881,158	0,09
881,534	0,09
881,911	0,09
882,288	0,09
882,664	0,09
883,041	0,09
883,417	0,09
883,793	0,09
884,17	0,09
884,546	0,09
884,922	0,09
885,298	0,09
885,674	0,09
886,05	0,09
886,426	0,09
886,802	0,09
887,178	0,09
887,553	0,09
887,929	0,09
888,305	0,09
888,68	0,09
889,056	0,09
889,431	0,09
889,806	0,09
890,182	0,09
890,557	0,09
890,932	0,09
891,307	0,09
891,682	0,09
892,057	0,09
892,432	0,09
892,807	0,09
893,181	0,09
893,556	0,09
893,931	0,09
894,305	0,09
894,68	0,09
895,054	0,09
895,428	0,09
895,803	0,09
896,177	0,09
896,551	0,09
896,925	0,09
897,299	0,09
897,673	0,09
898,047	0,09
898,421	0,09
898,795	0,1
899,169	0,09
899,542	0,09
899,916	0,09
900,289	0,09
900,663	0,09
901,036	0,09
901,41	0,09
901,783	0,09
902,156	0,09
902,529	0,09
902,902	0,09
903,275	0,09
903,648	0,09
904,021	0,09
904,394	0,09
904,767	0,09
905,139	0,09
905,512	0,09
905,885	0,09
906,257	0,09
906,629	0,09
907,002	0,09
907,374	0,09
907,746	0,09
908,119	0,09
908,491	0,08
908,863	0,09
909,235	0,08
909,607	0,08
909,978	0,08
910,35	0,08
910,722	0,08
911,094	0,08
911,465	0,08
911,837	0,08
912,208	0,08
912,58	0,08
912,951	0,08
913,322	0,07
913,693	0,07
914,065	0,08
914,436	0,07
914,807	0,08
915,178	0,07
915,548	0,07
915,919	0,07
916,29	0,06
916,661	0,07
917,031	0,07
917,402	0,07
917,772	0,07
918,143	0,07
918,513	0,06
918,884	0,07
919,254	0,07
919,624	0,06
919,994	0,07
920,364	0,06
920,734	0,06
921,104	0,06
921,474	0,06
921,844	0,06
922,213	0,06
922,583	0,06
922,953	0,06
923,322	0,06
923,692	0,06
924,061	0,06
924,43	0,05
924,8	0,06
925,169	0,05
925,538	0,06
925,907	0,06
926,276	0,05
926,645	0,06
927,014	0,05
927,383	0,06
927,751	0,05
928,12	0,05
928,489	0,05
928,857	0,05
929,226	0,05
929,594	0,05
929,962	0,05
930,331	0,05
930,699	0,05
931,067	0,05
931,435	0,05
931,803	0,05
932,171	0,04
932,539	0,05
932,907	0,04
933,275	0,04
933,642	0,04
934,01	0,04
934,378	0,04
934,745	0,04
935,113	0,04
935,48	0,04
935,847	0,04
936,215	0,04
936,582	0,04
936,949	0,04
937,316	0,04
937,683	0,04
938,05	0,04
938,417	0,03
938,783	0,03
939,15	0,04
939,517	0,03
939,883	0,04
940,25	0,04
940,616	0,04
940,983	0,04
941,349	0,03
941,715	0,04
942,082	0,03
942,448	0,04
942,814	0,03
943,18	0,03
943,546	0,04
943,912	0,02
944,277	0,04
944,643	0,04
945,009	0,04
945,374	0,03
945,74	0,04
946,105	0,03
946,471	0,03
946,836	0,04
947,202	0,03
947,567	0,03
947,932	0,03
948,297	0,03
948,662	0,03
949,027	0,03
949,392	0,03
949,757	0,03
950,121	0,03
950,486	0,02
950,851	0,03
951,215	0,03
951,58	0,03
951,944	0,04
952,309	0,03
952,673	0,04
953,037	0,03
953,401	0,03
953,765	0,03
954,129	0,02
954,493	0,03
954,857	0,02
955,221	0,03
955,585	0,02
955,949	0,05
956,312	0,02
956,676	0,03
957,039	0,03
957,403	0,01
957,766	0,02
958,13	0,03
958,493	0,03
958,856	0,03
959,219	0,03
959,582	0,03
959,945	0,02
960,308	0,02
960,671	0,02
961,034	0,01
961,396	0,03
961,759	0,03
962,122	0,03
962,484	0,04
962,847	0,04
963,209	0,03
963,571	0,03
963,934	0,04
964,296	0,02
964,658	0,02
965,02	0,02
965,382	0,02
965,744	0,03
966,106	0,02
966,468	0,01
966,829	0,01
967,191	0,04
967,553	0,02
967,914	0,05
968,276	0,01
968,637	0,02
968,998	0,04
969,36	0,03
969,721	0,04
970,082	0,03
970,443	0,03
970,804	0,02
971,165	0,01
971,526	0,03
971,887	0,03
972,247	0,02
972,608	0,04
972,969	0,03
973,329	0,03
973,69	0,03
974,05	0,03
974,41	0,05
974,771	0,05
975,131	0,02
975,491	0,05
975,851	0,03
976,211	0,05
976,571	0,04
976,931	0,05
977,291	0,06
977,65	0,03
978,01	0,02
978,37	0,05
978,729	0,03
979,089	0,04
979,448	0,04
979,807	0,03
980,167	0,05
980,526	0,03
980,885	0,03
981,244	0,03
981,603	0,03
981,962	0,09
982,321	0,05
982,68	0,07
983,038	0,02
983,397	0,07
983,756	0,07
984,114	0,07
984,473	0,06
984,831	0,06
985,19	0,04
985,548	0,06
985,906	0,03
986,264	0,05
986,622	0,08
986,98	0,06
987,338	0,03
987,696	0,05
988,054	0,04
988,412	0,05
988,769	0,04
989,127	0,05
989,484	0,01
989,842	0,06
990,199	0,05
990,557	0,03
990,914	0,04
991,271	0,04
991,628	0,08
991,985	0,05
992,342	0,04
992,699	0,07
993,056	0,04
993,413	0,05
993,77	0,05
994,126	0,07
994,483	0,07
994,84	0,05
995,196	0,06
995,552	0,09
995,909	0,02
996,265	0,07
996,621	0,07
996,977	0,06
997,333	0,08
997,689	0,05
998,045	0,06
998,401	0,08
998,757	0,07
999,113	0,08
999,468	0,04
999,824	0,06
1000,18	0,07
1000,535	0,05
1000,89	0,09
1001,246	0,06
1001,601	0,08
1001,956	0,08
1002,311	0,09
1002,666	0,06
1003,021	0,09
1003,376	0,05
1003,731	0,11
1004,086	0,02
1004,441	0,05
1004,795	0,08
1005,15	0,11
1005,505	0,03
1005,859	0,08
1006,213	0,07
1006,568	0,05
1006,922	0,03
1007,276	0,06
1007,63	0,08
1007,984	0,09
1008,338	0,05
1008,692	0,09
1009,046	0,07
1009,4	0,08
1009,754	0,05
1010,107	0,04
1010,461	0,06
1010,814	0,05
1011,168	0,08
1011,521	0,06
1011,874	0,05
1012,228	0,08
1012,581	0,07
1012,934	0,03
1013,287	0,06
1013,64	0,08
1013,993	0,11
1014,346	0,05
1014,699	0,02
1015,051	0,07
1015,404	0,07
1015,756	0,1
1016,109	0,11
1016,461	0,07
1016,814	0,11
1017,166	0,05
1017,518	0,03
1017,87	0,05
1018,223	0,03
1018,575	0,06
1018,927	0,1
1019,278	0,04
1019,63	0,03
1019,982	0,11
1020,334	0,08
1020,685	0,1
1021,037	0,07
1021,388	0,01
1021,74	0,07
1022,091	0,09
1022,442	0,07
1022,794	0,05
1023,145	0,06
1023,496	0,08
1023,847	0,06
1024,198	0,07
1024,549	0,07
1024,9	0,09
1025,25	0,09
1025,601	0,02
1025,952	0,05
1026,302	0,09
1026,653	0,11
1027,003	0,03
1027,353	0,03
1027,704	0,09
1028,054	0,06
1028,404	0,14
1028,754	0,08
1029,104	0,09
1029,454	0,14
1029,804	0,04
1030,154	0,07
1030,503	0,07
1030,853	0,07
