Data from Absorbance__0__14-58-41-912.txt Node

Date: Wed May 05 14:58:41 CEST 2021
User: thoma
Spectrometer: FLMS06037
Trigger mode: 0
Integration Time (sec): 1,451500E-1
Scans to average: 10
Electric dark correction enabled: true
Nonlinearity correction enabled: false
Boxcar width: 0
XAxis mode: Wavelengths
Number of Pixels in Spectrum: 2048
>>>>>Begin Spectral Data<<<<<
187,642	0,15
188,109	0,15
188,576	0,15
189,043	-0
189,51	-0
189,976	-0,02
190,443	-0,36
190,91	0,15
191,376	-0
191,843	-0,16
192,309	-0
192,776	-0
193,242	-0,06
193,708	-0,5
194,175	0,43
194,641	-0,21
195,107	-0
195,573	0,28
196,039	-0
196,505	1,47
196,971	-0
197,437	0,57
197,903	-0,23
198,369	0,08
198,835	0,09
199,301	0,13
199,766	0,13
200,232	0,12
200,698	0,12
201,163	0,11
201,629	0,13
202,094	0,1
202,56	0,11
203,025	0,12
203,49	0,13
203,956	0,12
204,421	0,12
204,886	0,14
205,351	0,12
205,816	0,12
206,281	0,13
206,746	0,14
207,211	0,12
207,676	0,12
208,141	0,14
208,606	0,16
209,071	0,17
209,536	0,16
210	0,18
210,465	0,19
210,929	0,2
211,394	0,21
211,859	0,23
212,323	0,25
212,787	0,27
213,252	0,27
213,716	0,32
214,18	0,34
214,645	0,4
215,109	0,44
215,573	0,45
216,037	0,51
216,501	0,56
216,965	0,6
217,429	0,67
217,893	0,7
218,357	0,78
218,82	0,82
219,284	0,87
219,748	0,95
220,211	0,97
220,675	1,02
221,139	1,08
221,602	1,13
222,066	1,16
222,529	1,18
222,992	1,24
223,456	1,27
223,919	1,3
224,382	1,34
224,845	1,37
225,308	1,38
225,772	1,41
226,235	1,43
226,698	1,44
227,16	1,46
227,623	1,47
228,086	1,46
228,549	1,48
229,012	1,5
229,474	1,51
229,937	1,51
230,4	1,52
230,862	1,53
231,325	1,54
231,787	1,53
232,25	1,52
232,712	1,53
233,174	1,52
233,637	1,54
234,099	1,52
234,561	1,52
235,023	1,51
235,485	1,52
235,947	1,53
236,409	1,52
236,871	1,52
237,333	1,52
237,795	1,52
238,257	1,52
238,718	1,53
239,18	1,53
239,642	1,51
240,103	1,52
240,565	1,5
241,026	1,52
241,488	1,51
241,949	1,5
242,411	1,53
242,872	1,51
243,333	1,5
243,795	1,51
244,256	1,5
244,717	1,49
245,178	1,5
245,639	1,51
246,1	1,49
246,561	1,49
247,022	1,51
247,483	1,54
247,943	1,54
248,404	1,54
248,865	1,53
249,325	1,53
249,786	1,55
250,247	1,55
250,707	1,55
251,168	1,57
251,628	1,57
252,088	1,57
252,549	1,58
253,009	1,56
253,469	1,57
253,929	1,57
254,389	1,58
254,849	1,58
255,309	1,59
255,769	1,57
256,229	1,58
256,689	1,6
257,149	1,61
257,609	1,63
258,069	1,6
258,528	1,62
258,988	1,63
259,448	1,62
259,907	1,63
260,367	1,63
260,826	1,64
261,285	1,62
261,745	1,62
262,204	1,63
262,663	1,65
263,122	1,63
263,582	1,63
264,041	1,65
264,5	1,65
264,959	1,64
265,418	1,65
265,877	1,63
266,336	1,64
266,794	1,64
267,253	1,65
267,712	1,65
268,171	1,63
268,629	1,63
269,088	1,64
269,546	1,65
270,005	1,66
270,463	1,65
270,922	1,63
271,38	1,65
271,838	1,64
272,296	1,62
272,755	1,62
273,213	1,63
273,671	1,63
274,129	1,63
274,587	1,63
275,045	1,64
275,503	1,62
275,961	1,64
276,418	1,63
276,876	1,64
277,334	1,65
277,791	1,64
278,249	1,63
278,707	1,65
279,164	1,65
279,622	1,62
280,079	1,63
280,536	1,64
280,994	1,65
281,451	1,63
281,908	1,64
282,365	1,62
282,822	1,63
283,28	1,63
283,737	1,64
284,193	1,63
284,65	1,63
285,107	1,64
285,564	1,65
286,021	1,63
286,478	1,63
286,934	1,61
287,391	1,63
287,848	1,62
288,304	1,63
288,761	1,62
289,217	1,62
289,673	1,61
290,13	1,62
290,586	1,62
291,042	1,61
291,498	1,63
291,955	1,58
292,411	1,61
292,867	1,6
293,323	1,62
293,779	1,62
294,235	1,6
294,69	1,6
295,146	1,59
295,602	1,57
296,058	1,58
296,513	1,59
296,969	1,59
297,424	1,59
297,88	1,57
298,335	1,55
298,791	1,56
299,246	1,56
299,701	1,55
300,157	1,55
300,612	1,55
301,067	1,55
301,522	1,56
301,977	1,54
302,432	1,54
302,887	1,55
303,342	1,54
303,797	1,54
304,252	1,54
304,707	1,53
305,161	1,54
305,616	1,51
306,071	1,53
306,525	1,53
306,98	1,51
307,434	1,52
307,889	1,52
308,343	1,51
308,797	1,48
309,252	1,48
309,706	1,51
310,16	1,5
310,614	1,51
311,068	1,47
311,522	1,49
311,976	1,46
312,43	1,46
312,884	1,46
313,338	1,44
313,792	1,45
314,245	1,45
314,699	1,43
315,153	1,42
315,606	1,43
316,06	1,4
316,513	1,41
316,967	1,39
317,42	1,42
317,873	1,39
318,327	1,41
318,78	1,39
319,233	1,39
319,686	1,39
320,139	1,38
320,592	1,39
321,045	1,38
321,498	1,37
321,951	1,37
322,404	1,37
322,857	1,35
323,31	1,34
323,762	1,34
324,215	1,32
324,667	1,31
325,12	1,29
325,573	1,3
326,025	1,28
326,477	1,28
326,93	1,31
327,382	1,32
327,834	1,34
328,286	1,32
328,739	1,33
329,191	1,31
329,643	1,31
330,095	1,29
330,547	1,29
330,999	1,29
331,45	1,27
331,902	1,26
332,354	1,27
332,806	1,24
333,257	1,25
333,709	1,25
334,16	1,25
334,612	1,25
335,063	1,23
335,515	1,24
335,966	1,23
336,417	1,25
336,869	1,25
337,32	1,23
337,771	1,23
338,222	1,2
338,673	1,19
339,124	1,17
339,575	1,16
340,026	1,17
340,477	1,16
340,928	1,16
341,378	1,16
341,829	1,14
342,28	1,16
342,73	1,15
343,181	1,15
343,631	1,14
344,082	1,13
344,532	1,13
344,982	1,12
345,433	1,12
345,883	1,12
346,333	1,11
346,783	1,12
347,233	1,11
347,683	1,11
348,133	1,1
348,583	1,1
349,033	1,1
349,483	1,09
349,933	1,09
350,383	1,1
350,832	1,08
351,282	1,08
351,732	1,07
352,181	1,07
352,631	1,06
353,08	1,06
353,529	1,06
353,979	1,05
354,428	1,04
354,877	1,03
355,327	1,04
355,776	1,04
356,225	1,02
356,674	1,02
357,123	1,01
357,572	1,01
358,021	1,02
358,469	1
358,918	1
359,367	1
359,816	0,99
360,264	0,99
360,713	0,99
361,161	0,98
361,61	0,98
362,058	0,96
362,507	0,97
362,955	0,96
363,403	0,95
363,852	0,96
364,3	0,95
364,748	0,95
365,196	0,94
365,644	0,93
366,092	0,93
366,54	0,92
366,988	0,93
367,436	0,91
367,883	0,92
368,331	0,9
368,779	0,9
369,226	0,9
369,674	0,9
370,121	0,9
370,569	0,89
371,016	0,88
371,464	0,87
371,911	0,86
372,358	0,87
372,805	0,86
373,253	0,86
373,7	0,85
374,147	0,84
374,594	0,84
375,041	0,83
375,488	0,83
375,935	0,82
376,381	0,82
376,828	0,81
377,275	0,81
377,721	0,8
378,168	0,79
378,615	0,78
379,061	0,78
379,508	0,78
379,954	0,77
380,4	0,76
380,847	0,75
381,293	0,75
381,739	0,75
382,185	0,73
382,631	0,72
383,077	0,71
383,523	0,71
383,969	0,7
384,415	0,69
384,861	0,7
385,307	0,69
385,752	0,67
386,198	0,67
386,644	0,66
387,089	0,66
387,535	0,65
387,98	0,64
388,426	0,63
388,871	0,64
389,317	0,63
389,762	0,62
390,207	0,62
390,652	0,61
391,097	0,6
391,542	0,6
391,987	0,58
392,432	0,58
392,877	0,58
393,322	0,58
393,767	0,57
394,212	0,57
394,656	0,56
395,101	0,56
395,546	0,55
395,99	0,54
396,435	0,54
396,879	0,53
397,324	0,53
397,768	0,53
398,212	0,52
398,657	0,51
399,101	0,51
399,545	0,51
399,989	0,51
400,433	0,5
400,877	0,49
401,321	0,49
401,765	0,49
402,209	0,48
402,653	0,48
403,096	0,47
403,54	0,47
403,984	0,47
404,427	0,47
404,871	0,46
405,314	0,46
405,758	0,45
406,201	0,45
406,644	0,44
407,088	0,45
407,531	0,44
407,974	0,43
408,417	0,43
408,86	0,43
409,303	0,42
409,746	0,42
410,189	0,42
410,632	0,41
411,075	0,41
411,517	0,41
411,96	0,41
412,403	0,4
412,845	0,4
413,288	0,4
413,73	0,39
414,173	0,39
414,615	0,39
415,058	0,38
415,5	0,38
415,942	0,38
416,384	0,38
416,826	0,37
417,268	0,37
417,711	0,37
418,152	0,36
418,594	0,35
419,036	0,36
419,478	0,36
419,92	0,35
420,362	0,35
420,803	0,35
421,245	0,34
421,686	0,34
422,128	0,34
422,569	0,34
423,011	0,34
423,452	0,33
423,893	0,33
424,335	0,33
424,776	0,33
425,217	0,32
425,658	0,32
426,099	0,32
426,54	0,31
426,981	0,32
427,422	0,31
427,863	0,31
428,304	0,3
428,744	0,31
429,185	0,3
429,626	0,3
430,066	0,3
430,507	0,29
430,947	0,29
431,388	0,29
431,828	0,29
432,268	0,29
432,709	0,29
433,149	0,28
433,589	0,28
434,029	0,28
434,469	0,28
434,909	0,27
435,349	0,27
435,789	0,27
436,229	0,27
436,669	0,26
437,108	0,26
437,548	0,26
437,988	0,26
438,427	0,25
438,867	0,26
439,306	0,26
439,746	0,25
440,185	0,25
440,624	0,25
441,064	0,25
441,503	0,25
441,942	0,24
442,381	0,24
442,82	0,24
443,259	0,24
443,698	0,23
444,137	0,24
444,576	0,23
445,015	0,23
445,453	0,24
445,892	0,23
446,331	0,23
446,769	0,23
447,208	0,22
447,646	0,22
448,085	0,22
448,523	0,22
448,961	0,22
449,4	0,21
449,838	0,21
450,276	0,21
450,714	0,21
451,152	0,21
451,59	0,21
452,028	0,2
452,466	0,21
452,904	0,2
453,342	0,2
453,779	0,2
454,217	0,19
454,655	0,2
455,092	0,2
455,53	0,2
455,967	0,19
456,405	0,19
456,842	0,19
457,279	0,19
457,717	0,19
458,154	0,19
458,591	0,18
459,028	0,19
459,465	0,19
459,902	0,18
460,339	0,18
460,776	0,18
461,213	0,17
461,65	0,18
462,086	0,18
462,523	0,18
462,96	0,17
463,396	0,17
463,833	0,17
464,269	0,17
464,706	0,17
465,142	0,17
465,578	0,17
466,015	0,17
466,451	0,17
466,887	0,17
467,323	0,17
467,759	0,16
468,195	0,16
468,631	0,16
469,067	0,16
469,503	0,16
469,939	0,16
470,374	0,16
470,81	0,16
471,246	0,15
471,681	0,15
472,117	0,15
472,552	0,15
472,988	0,15
473,423	0,15
473,858	0,15
474,294	0,15
474,729	0,15
475,164	0,15
475,599	0,15
476,034	0,15
476,469	0,14
476,904	0,14
477,339	0,14
477,774	0,14
478,208	0,14
478,643	0,14
479,078	0,14
479,512	0,14
479,947	0,14
480,381	0,14
480,816	0,14
481,25	0,14
481,685	0,13
482,119	0,14
482,553	0,13
482,987	0,13
483,421	0,13
483,856	0,13
484,29	0,13
484,724	0,13
485,157	0,13
485,591	0,13
486,025	0,13
486,459	0,13
486,893	0,13
487,326	0,12
487,76	0,12
488,193	0,13
488,627	0,12
489,06	0,12
489,494	0,12
489,927	0,12
490,36	0,12
490,794	0,12
491,227	0,12
491,66	0,12
492,093	0,12
492,526	0,12
492,959	0,12
493,392	0,12
493,825	0,12
494,257	0,12
494,69	0,11
495,123	0,11
495,555	0,12
495,988	0,12
496,421	0,12
496,853	0,12
497,285	0,11
497,718	0,11
498,15	0,11
498,582	0,11
499,015	0,11
499,447	0,11
499,879	0,11
500,311	0,11
500,743	0,11
501,175	0,11
501,607	0,11
502,038	0,11
502,47	0,11
502,902	0,11
503,334	0,11
503,765	0,11
504,197	0,1
504,628	0,1
505,06	0,11
505,491	0,1
505,922	0,1
506,354	0,11
506,785	0,1
507,216	0,1
507,647	0,1
508,078	0,1
508,509	0,1
508,94	0,1
509,371	0,1
509,802	0,1
510,233	0,1
510,664	0,1
511,094	0,1
511,525	0,1
511,955	0,1
512,386	0,1
512,816	0,1
513,247	0,1
513,677	0,1
514,108	0,1
514,538	0,1
514,968	0,1
515,398	0,1
515,828	0,1
516,258	0,1
516,688	0,1
517,118	0,09
517,548	0,1
517,978	0,1
518,408	0,09
518,837	0,09
519,267	0,09
519,697	0,09
520,126	0,09
520,556	0,09
520,985	0,09
521,415	0,09
521,844	0,09
522,273	0,09
522,702	0,09
523,132	0,09
523,561	0,09
523,99	0,09
524,419	0,09
524,848	0,09
525,277	0,09
525,705	0,09
526,134	0,09
526,563	0,09
526,992	0,09
527,42	0,09
527,849	0,09
528,277	0,09
528,706	0,09
529,134	0,09
529,563	0,09
529,991	0,08
530,419	0,09
530,847	0,09
531,275	0,09
531,703	0,09
532,131	0,09
532,559	0,08
532,987	0,09
533,415	0,08
533,843	0,08
534,271	0,09
534,698	0,08
535,126	0,08
535,554	0,08
535,981	0,08
536,409	0,08
536,836	0,08
537,264	0,08
537,691	0,08
538,118	0,08
538,545	0,08
538,972	0,08
539,4	0,08
539,827	0,08
540,254	0,08
540,681	0,08
541,107	0,08
541,534	0,08
541,961	0,08
542,388	0,08
542,814	0,08
543,241	0,08
543,667	0,08
544,094	0,08
544,52	0,08
544,947	0,08
545,373	0,08
545,799	0,08
546,226	0,08
546,652	0,08
547,078	0,08
547,504	0,08
547,93	0,08
548,356	0,08
548,782	0,08
549,208	0,08
549,633	0,08
550,059	0,07
550,485	0,08
550,91	0,08
551,336	0,08
551,761	0,07
552,187	0,08
552,612	0,08
553,038	0,08
553,463	0,07
553,888	0,07
554,313	0,08
554,738	0,08
555,163	0,08
555,588	0,07
556,013	0,08
556,438	0,08
556,863	0,07
557,288	0,07
557,713	0,08
558,137	0,07
558,562	0,08
558,986	0,08
559,411	0,07
559,835	0,08
560,26	0,08
560,684	0,08
561,108	0,07
561,533	0,08
561,957	0,07
562,381	0,07
562,805	0,07
563,229	0,07
563,653	0,07
564,077	0,07
564,501	0,07
564,925	0,07
565,348	0,07
565,772	0,07
566,196	0,07
566,619	0,07
567,043	0,07
567,466	0,07
567,89	0,07
568,313	0,07
568,736	0,07
569,159	0,07
569,583	0,07
570,006	0,07
570,429	0,07
570,852	0,07
571,275	0,07
571,698	0,07
572,12	0,07
572,543	0,07
572,966	0,07
573,389	0,07
573,811	0,07
574,234	0,07
574,656	0,06
575,079	0,07
575,501	0,06
575,924	0,06
576,346	0,07
576,768	0,07
577,19	0,07
577,612	0,06
578,034	0,06
578,456	0,06
578,878	0,06
579,3	0,06
579,722	0,06
580,144	0,06
580,566	0,06
580,987	0,06
581,409	0,07
581,83	0,06
582,252	0,06
582,673	0,06
583,095	0,06
583,516	0,06
583,937	0,06
584,359	0,06
584,78	0,07
585,201	0,06
585,622	0,06
586,043	0,06
586,464	0,06
586,885	0,06
587,306	0,06
587,726	0,06
588,147	0,06
588,568	0,06
588,988	0,06
589,409	0,06
589,83	0,06
590,25	0,06
590,67	0,06
591,091	0,06
591,511	0,06
591,931	0,06
592,351	0,06
592,771	0,06
593,192	0,06
593,612	0,06
594,031	0,06
594,451	0,06
594,871	0,06
595,291	0,06
595,711	0,06
596,13	0,06
596,55	0,06
596,969	0,06
597,389	0,06
597,808	0,06
598,228	0,06
598,647	0,06
599,066	0,06
599,486	0,06
599,905	0,06
600,324	0,06
600,743	0,05
601,162	0,05
601,581	0,06
602	0,06
602,418	0,06
602,837	0,06
603,256	0,06
603,674	0,06
604,093	0,06
604,512	0,06
604,93	0,06
605,349	0,06
605,767	0,06
606,185	0,06
606,603	0,06
607,022	0,06
607,44	0,06
607,858	0,06
608,276	0,06
608,694	0,06
609,112	0,06
609,53	0,06
609,947	0,06
610,365	0,06
610,783	0,06
611,2	0,06
611,618	0,06
612,036	0,06
612,453	0,06
612,87	0,06
613,288	0,06
613,705	0,06
614,122	0,06
614,539	0,06
614,957	0,06
615,374	0,06
615,791	0,06
616,208	0,06
616,624	0,06
617,041	0,06
617,458	0,06
617,875	0,06
618,291	0,06
618,708	0,06
619,125	0,06
619,541	0,06
619,958	0,06
620,374	0,06
620,79	0,06
621,206	0,06
621,623	0,06
622,039	0,06
622,455	0,06
622,871	0,06
623,287	0,06
623,703	0,06
624,119	0,06
624,535	0,06
624,95	0,06
625,366	0,06
625,782	0,06
626,197	0,06
626,613	0,06
627,028	0,06
627,444	0,06
627,859	0,06
628,274	0,06
628,69	0,06
629,105	0,06
629,52	0,06
629,935	0,06
630,35	0,06
630,765	0,06
631,18	0,06
631,595	0,06
632,009	0,06
632,424	0,06
632,839	0,06
633,253	0,06
633,668	0,06
634,082	0,06
634,497	0,06
634,911	0,06
635,326	0,06
635,74	0,06
636,154	0,06
636,568	0,06
636,982	0,06
637,396	0,06
637,81	0,06
638,224	0,06
638,638	0,06
639,052	0,06
639,466	0,06
639,879	0,06
640,293	0,06
640,707	0,06
641,12	0,06
641,534	0,06
641,947	0,06
642,36	0,06
642,774	0,06
643,187	0,06
643,6	0,06
644,013	0,06
644,426	0,06
644,839	0,06
645,252	0,06
645,665	0,06
646,078	0,06
646,491	0,06
646,904	0,06
647,316	0,06
647,729	0,06
648,141	0,06
648,554	0,06
648,966	0,06
649,379	0,06
649,791	0,06
650,203	0,06
650,615	0,06
651,028	0,06
651,44	0,06
651,852	0,06
652,264	0,06
652,676	0,06
653,087	0,06
653,499	0,06
653,911	0,06
654,323	0,06
654,734	0,06
655,146	0,06
655,557	0,06
655,969	0,06
656,38	0,05
656,792	0,05
657,203	0,05
657,614	0,05
658,025	0,05
658,436	0,05
658,847	0,05
659,258	0,05
659,669	0,06
660,08	0,06
660,491	0,06
660,902	0,06
661,312	0,06
661,723	0,05
662,134	0,06
662,544	0,06
662,955	0,05
663,365	0,06
663,775	0,06
664,186	0,06
664,596	0,06
665,006	0,06
665,416	0,06
665,826	0,05
666,236	0,05
666,646	0,06
667,056	0,06
667,466	0,06
667,876	0,06
668,286	0,05
668,695	0,05
669,105	0,05
669,514	0,05
669,924	0,05
670,333	0,06
670,743	0,05
671,152	0,05
671,561	0,05
671,97	0,05
672,38	0,05
672,789	0,05
673,198	0,05
673,607	0,05
674,016	0,05
674,424	0,05
674,833	0,05
675,242	0,05
675,651	0,05
676,059	0,05
676,468	0,05
676,876	0,05
677,285	0,05
677,693	0,05
678,101	0,05
678,51	0,05
678,918	0,05
679,326	0,05
679,734	0,05
680,142	0,05
680,55	0,05
680,958	0,05
681,366	0,05
681,774	0,05
682,181	0,05
682,589	0,05
682,997	0,05
683,404	0,05
683,812	0,05
684,219	0,05
684,627	0,05
685,034	0,05
685,441	0,05
685,848	0,05
686,256	0,05
686,663	0,05
687,07	0,05
687,477	0,05
687,884	0,05
688,29	0,05
688,697	0,05
689,104	0,05
689,511	0,05
689,917	0,05
690,324	0,05
690,73	0,05
691,137	0,05
691,543	0,05
691,95	0,05
692,356	0,05
692,762	0,05
693,168	0,05
693,574	0,05
693,98	0,05
694,386	0,05
694,792	0,05
695,198	0,05
695,604	0,05
696,01	0,05
696,415	0,05
696,821	0,05
697,227	0,05
697,632	0,05
698,038	0,05
698,443	0,05
698,848	0,05
699,254	0,05
699,659	0,05
700,064	0,05
700,469	0,05
700,874	0,05
701,279	0,05
701,684	0,05
702,089	0,05
702,494	0,05
702,898	0,05
703,303	0,05
703,708	0,05
704,112	0,05
704,517	0,05
704,921	0,05
705,326	0,05
705,73	0,05
706,134	0,05
706,538	0,05
706,943	0,05
707,347	0,05
707,751	0,05
708,155	0,05
708,559	0,05
708,963	0,05
709,366	0,05
709,77	0,05
710,174	0,05
710,577	0,05
710,981	0,05
711,384	0,05
711,788	0,05
712,191	0,05
712,595	0,05
712,998	0,05
713,401	0,05
713,804	0,05
714,207	0,05
714,61	0,05
715,013	0,05
715,416	0,05
715,819	0,05
716,222	0,05
716,625	0,05
717,027	0,05
717,43	0,05
717,833	0,05
718,235	0,05
718,638	0,05
719,04	0,05
719,442	0,05
719,844	0,05
720,247	0,05
720,649	0,05
721,051	0,05
721,453	0,05
721,855	0,05
722,257	0,05
722,659	0,05
723,06	0,05
723,462	0,05
723,864	0,05
724,265	0,05
724,667	0,05
725,069	0,05
725,47	0,05
725,871	0,05
726,273	0,05
726,674	0,05
727,075	0,05
727,476	0,05
727,877	0,05
728,278	0,05
728,679	0,05
729,08	0,05
729,481	0,05
729,882	0,05
730,282	0,05
730,683	0,05
731,084	0,05
731,484	0,05
731,885	0,05
732,285	0,05
732,686	0,05
733,086	0,05
733,486	0,05
733,886	0,05
734,286	0,05
734,686	0,05
735,086	0,05
735,486	0,05
735,886	0,05
736,286	0,05
736,686	0,05
737,086	0,05
737,485	0,05
737,885	0,05
738,284	0,05
738,684	0,05
739,083	0,05
739,482	0,05
739,882	0,05
740,281	0,05
740,68	0,05
741,079	0,05
741,478	0,05
741,877	0,05
742,276	0,05
742,675	0,05
743,074	0,05
743,473	0,05
743,871	0,05
744,27	0,05
744,668	0,05
745,067	0,05
745,465	0,05
745,864	0,05
746,262	0,05
746,66	0,05
747,059	0,05
747,457	0,05
747,855	0,05
748,253	0,05
748,651	0,05
749,049	0,05
749,447	0,05
749,844	0,05
750,242	0,05
750,64	0,05
751,037	0,05
751,435	0,05
751,832	0,05
752,23	0,05
752,627	0,05
753,024	0,05
753,422	0,05
753,819	0,05
754,216	0,05
754,613	0,05
755,01	0,05
755,407	0,05
755,804	0,05
756,201	0,05
756,597	0,05
756,994	0,05
757,391	0,05
757,787	0,05
758,184	0,05
758,58	0,05
758,977	0,05
759,373	0,05
759,769	0,05
760,166	0,05
760,562	0,05
760,958	0,05
761,354	0,05
761,75	0,05
762,146	0,05
762,542	0,05
762,937	0,05
763,333	0,05
763,729	0,05
764,124	0,05
764,52	0,05
764,915	0,05
765,311	0,05
765,706	0,05
766,101	0,05
766,497	0,05
766,892	0,05
767,287	0,05
767,682	0,05
768,077	0,05
768,472	0,05
768,867	0,05
769,262	0,05
769,657	0,05
770,051	0,05
770,446	0,05
770,84	0,05
771,235	0,05
771,629	0,05
772,024	0,05
772,418	0,05
772,812	0,05
773,207	0,05
773,601	0,05
773,995	0,05
774,389	0,05
774,783	0,05
775,177	0,05
775,571	0,05
775,964	0,05
776,358	0,05
776,752	0,05
777,145	0,05
777,539	0,05
777,932	0,05
778,326	0,05
778,719	0,05
779,113	0,05
779,506	0,05
779,899	0,05
780,292	0,05
780,685	0,05
781,078	0,05
781,471	0,05
781,864	0,05
782,257	0,05
782,65	0,05
783,042	0,05
783,435	0,05
783,827	0,05
784,22	0,05
784,612	0,05
785,005	0,05
785,397	0,05
785,789	0,05
786,182	0,05
786,574	0,05
786,966	0,05
787,358	0,05
787,75	0,05
788,142	0,05
788,534	0,05
788,925	0,05
789,317	0,05
789,709	0,05
790,1	0,05
790,492	0,05
790,883	0,05
791,275	0,05
791,666	0,05
792,057	0,05
792,449	0,05
792,84	0,05
793,231	0,05
793,622	0,05
794,013	0,05
794,404	0,05
794,795	0,05
795,185	0,05
795,576	0,05
795,967	0,05
796,357	0,05
796,748	0,05
797,138	0,05
797,529	0,05
797,919	0,05
798,31	0,05
798,7	0,05
799,09	0,05
799,48	0,05
799,87	0,05
800,26	0,05
800,65	0,05
801,04	0,05
801,43	0,05
801,82	0,05
802,209	0,05
802,599	0,05
802,988	0,05
803,378	0,05
803,767	0,05
804,157	0,05
804,546	0,05
804,935	0,05
805,325	0,05
805,714	0,05
806,103	0,05
806,492	0,05
806,881	0,05
807,27	0,05
807,658	0,05
808,047	0,05
808,436	0,05
808,824	0,05
809,213	0,05
809,602	0,05
809,99	0,05
810,378	0,05
810,767	0,05
811,155	0,05
811,543	0,05
811,931	0,05
812,319	0,05
812,708	0,05
813,095	0,05
813,483	0,05
813,871	0,05
814,259	0,05
814,647	0,05
815,034	0,05
815,422	0,06
815,809	0,05
816,197	0,05
816,584	0,05
816,972	0,05
817,359	0,05
817,746	0,05
818,133	0,05
818,52	0,05
818,907	0,05
819,294	0,05
819,681	0,05
820,068	0,05
820,455	0,05
820,842	0,05
821,228	0,06
821,615	0,05
822,002	0,05
822,388	0,05
822,774	0,05
823,161	0,05
823,547	0,05
823,933	0,05
824,319	0,05
824,706	0,05
825,092	0,05
825,478	0,05
825,863	0,05
826,249	0,05
826,635	0,05
827,021	0,05
827,407	0,05
827,792	0,05
828,178	0,05
828,563	0,05
828,949	0,05
829,334	0,05
829,719	0,05
830,104	0,05
830,49	0,05
830,875	0,05
831,26	0,05
831,645	0,05
832,03	0,05
832,415	0,05
832,799	0,05
833,184	0,05
833,569	0,05
833,953	0,05
834,338	0,05
834,722	0,05
835,107	0,05
835,491	0,05
835,875	0,05
836,26	0,05
836,644	0,05
837,028	0,05
837,412	0,05
837,796	0,05
838,18	0,05
838,564	0,05
838,948	0,05
839,331	0,05
839,715	0,05
840,099	0,05
840,482	0,05
840,866	0,05
841,249	0,05
841,632	0,05
842,016	0,05
842,399	0,05
842,782	0,05
843,165	0,05
843,548	0,05
843,931	0,05
844,314	0,05
844,697	0,05
845,08	0,05
845,463	0,05
845,845	0,05
846,228	0,05
846,61	0,05
846,993	0,05
847,375	0,05
847,758	0,05
848,14	0,05
848,522	0,05
848,904	0,05
849,286	0,05
849,668	0,05
850,05	0,05
850,432	0,05
850,814	0,05
851,196	0,05
851,578	0,05
851,959	0,05
852,341	0,05
852,722	0,05
853,104	0,05
853,485	0,05
853,867	0,05
854,248	0,05
854,629	0,05
855,01	0,05
855,391	0,05
855,773	0,05
856,153	0,05
856,534	0,05
856,915	0,05
857,296	0,05
857,677	0,05
858,057	0,05
858,438	0,05
858,819	0,05
859,199	0,05
859,579	0,05
859,96	0,05
860,34	0,05
860,72	0,05
861,1	0,05
861,48	0,05
861,86	0,05
862,24	0,05
862,62	0,05
863	0,05
863,38	0,05
863,76	0,05
864,139	0,05
864,519	0,05
864,898	0,05
865,278	0,05
865,657	0,05
866,037	0,05
866,416	0,05
866,795	0,05
867,174	0,05
867,553	0,05
867,932	0,05
868,311	0,05
868,69	0,05
869,069	0,05
869,448	0,05
869,826	0,05
870,205	0,05
870,584	0,05
870,962	0,05
871,341	0,05
871,719	0,05
872,097	0,05
872,475	0,05
872,854	0,05
873,232	0,05
873,61	0,05
873,988	0,05
874,366	0,05
874,744	0,05
875,121	0,05
875,499	0,05
875,877	0,05
876,255	0,05
876,632	0,05
877,01	0,05
877,387	0,05
877,764	0,05
878,142	0,05
878,519	0,05
878,896	0,05
879,273	0,05
879,65	0,05
880,027	0,05
880,404	0,04
880,781	0,04
881,158	0,05
881,534	0,05
881,911	0,04
882,288	0,05
882,664	0,04
883,041	0,04
883,417	0,05
883,793	0,04
884,17	0,04
884,546	0,04
884,922	0,04
885,298	0,04
885,674	0,04
886,05	0,04
886,426	0,04
886,802	0,04
887,178	0,04
887,553	0,04
887,929	0,04
888,305	0,05
888,68	0,04
889,056	0,04
889,431	0,04
889,806	0,04
890,182	0,04
890,557	0,04
890,932	0,04
891,307	0,04
891,682	0,04
892,057	0,04
892,432	0,04
892,807	0,04
893,181	0,04
893,556	0,04
893,931	0,04
894,305	0,04
894,68	0,04
895,054	0,04
895,428	0,04
895,803	0,03
896,177	0,04
896,551	0,04
896,925	0,04
897,299	0,04
897,673	0,04
898,047	0,04
898,421	0,04
898,795	0,04
899,169	0,04
899,542	0,03
899,916	0,04
900,289	0,03
900,663	0,04
901,036	0,03
901,41	0,04
901,783	0,04
902,156	0,03
902,529	0,03
902,902	0,03
903,275	0,03
903,648	0,03
904,021	0,03
904,394	0,03
904,767	0,03
905,139	0,04
905,512	0,03
905,885	0,03
906,257	0,03
906,629	0,02
907,002	0,03
907,374	0,03
907,746	0,03
908,119	0,03
908,491	0,02
908,863	0,03
909,235	0,02
909,607	0,03
909,978	0,02
910,35	0,02
910,722	0,02
911,094	0,02
911,465	0,02
911,837	0,02
912,208	0,01
912,58	0,02
912,951	0,02
913,322	0,01
913,693	0,01
914,065	0,02
914,436	0,01
914,807	0,01
915,178	0,01
915,548	0,01
915,919	0,01
916,29	0
916,661	0,01
917,031	0,01
917,402	0,01
917,772	0,01
918,143	0,01
918,513	0
918,884	0
919,254	0,01
919,624	0,01
919,994	0
920,364	0
920,734	0
921,104	0
921,474	-0
921,844	-0
922,213	-0
922,583	-0
922,953	0
923,322	0
923,692	0
924,061	0
924,43	-0
924,8	-0
925,169	-0,01
925,538	-0
925,907	-0,01
926,276	-0,01
926,645	-0,01
927,014	-0,01
927,383	-0
927,751	-0
928,12	-0,01
928,489	-0,01
928,857	-0,01
929,226	-0,01
929,594	-0,01
929,962	-0,01
930,331	-0,01
930,699	-0,01
931,067	-0,01
931,435	-0,01
931,803	-0,02
932,171	-0,01
932,539	-0,01
932,907	-0,02
933,275	-0,02
933,642	-0,01
934,01	-0,02
934,378	-0,02
934,745	-0,01
935,113	-0,02
935,48	-0,02
935,847	-0,01
936,215	-0,01
936,582	-0,02
936,949	-0,02
937,316	-0,02
937,683	-0,02
938,05	-0,01
938,417	-0,02
938,783	-0,02
939,15	-0,01
939,517	-0,01
939,883	-0,01
940,25	-0,01
940,616	-0,01
940,983	-0,02
941,349	-0,02
941,715	-0,01
942,082	-0,02
942,448	-0,02
942,814	-0,02
943,18	-0,02
943,546	-0,02
943,912	-0,03
944,277	-0,01
944,643	-0,01
945,009	-0,01
945,374	-0,02
945,74	-0,02
946,105	-0,01
946,471	-0,02
946,836	-0,01
947,202	-0,01
947,567	-0,02
947,932	-0,02
948,297	-0,02
948,662	-0,02
949,027	-0,02
949,392	-0,02
949,757	-0,02
950,121	-0,02
950,486	-0,02
950,851	-0,03
951,215	-0
951,58	-0,03
951,944	-0,01
952,309	-0,02
952,673	-0,01
953,037	-0,02
953,401	-0,02
953,765	-0,01
954,129	-0,02
954,493	-0,01
954,857	-0,02
955,221	-0,02
955,585	-0,02
955,949	-0,01
956,312	-0,02
956,676	-0,02
957,039	-0,01
957,403	-0,01
957,766	-0,02
958,13	-0,02
958,493	-0
958,856	-0,02
959,219	-0,02
959,582	0
959,945	-0,02
960,308	-0,01
960,671	-0,01
961,034	-0,02
961,396	0
961,759	-0,02
962,122	-0
962,484	0,01
962,847	-0,01
963,209	-0,01
963,571	-0,02
963,934	0,01
964,296	-0,01
964,658	-0,01
965,02	-0,01
965,382	-0
965,744	-0,01
966,106	-0
966,468	-0,01
966,829	-0,02
967,191	-0
967,553	-0,01
967,914	0,02
968,276	-0
968,637	-0,01
968,998	-0,01
969,36	0,01
969,721	-0
970,082	-0,01
970,443	-0,01
970,804	-0,02
971,165	-0,01
971,526	-0,02
971,887	0,01
972,247	-0,02
972,608	0
972,969	-0
973,329	-0,01
973,69	0
974,05	0,01
974,41	-0,01
974,771	0,01
975,131	-0,02
975,491	0,01
975,851	0,01
976,211	0,01
976,571	0,02
976,931	0,02
977,291	0,02
977,65	0,02
978,01	0
978,37	0
978,729	-0,01
979,089	0,01
979,448	0,03
979,807	-0,01
980,167	0
980,526	0,02
980,885	-0,01
981,244	-0,02
981,603	0,02
981,962	0,01
982,321	0,01
982,68	0,03
983,038	0,01
983,397	0,02
983,756	0,03
984,114	0,01
984,473	-0
984,831	0,02
985,19	-0
985,548	0,04
985,906	0,01
986,264	0,03
986,622	0,02
986,98	0,03
987,338	0,02
987,696	0,01
988,054	-0,01
988,412	0,02
988,769	0,02
989,127	0
989,484	-0,01
989,842	0,03
990,199	0,03
990,557	0,02
990,914	0,01
991,271	0,02
991,628	0,03
991,985	0,02
992,342	0,01
992,699	0,02
993,056	0,01
993,413	0
993,77	0,01
994,126	0,03
994,483	0,02
994,84	-0,01
995,196	0,02
995,552	0,04
995,909	0,03
996,265	-0
996,621	0,01
996,977	0,05
997,333	0,03
997,689	0,02
998,045	0,02
998,401	0,04
998,757	0,04
999,113	0,03
999,468	0
999,824	-0,01
1000,18	-0,01
1000,535	0,04
1000,89	0,03
1001,246	0
1001,601	0,05
1001,956	0,05
1002,311	-0,01
1002,666	0,03
1003,021	-0
1003,376	0
1003,731	0,06
1004,086	0,02
1004,441	0,01
1004,795	-0,01
1005,15	0,08
1005,505	-0
1005,859	0,01
1006,213	0,05
1006,568	0,05
1006,922	0,03
1007,276	0,01
1007,63	0,07
1007,984	0,05
1008,338	0,01
1008,692	0,04
1009,046	0,02
1009,4	0,01
1009,754	0,02
1010,107	-0,01
1010,461	0,02
1010,814	0,04
1011,168	0,06
1011,521	0,06
1011,874	0,01
1012,228	0,05
1012,581	0,02
1012,934	0,03
1013,287	0,01
1013,64	0,01
1013,993	0,08
1014,346	0,06
1014,699	0,03
1015,051	0,03
1015,404	0,04
1015,756	0,08
1016,109	0,1
1016,461	0,05
1016,814	0,04
1017,166	0,02
1017,518	0
1017,87	0,01
1018,223	0,04
1018,575	0,04
1018,927	0,05
1019,278	0,04
1019,63	-0,02
1019,982	0,08
1020,334	0,06
1020,685	0,06
1021,037	0,06
1021,388	-0,01
1021,74	0,04
1022,091	0,04
1022,442	0,03
1022,794	0,05
1023,145	0,08
1023,496	0,03
1023,847	0,01
1024,198	0,06
1024,549	0,04
1024,9	0,06
1025,25	0,09
1025,601	0,03
1025,952	-0
1026,302	0,05
1026,653	0,08
1027,003	0,02
1027,353	0,02
1027,704	0,07
1028,054	0,05
1028,404	0,09
1028,754	0,06
1029,104	0,01
1029,454	0,05
1029,804	0,02
1030,154	-0,01
1030,503	-0,01
1030,853	-0,01
