Data from Absorbance__50__15-31-23-997.txt Node

Date: Wed May 05 15:31:24 CEST 2021
User: thoma
Spectrometer: FLMS06037
Trigger mode: 0
Integration Time (sec): 1,451500E-1
Scans to average: 10
Electric dark correction enabled: true
Nonlinearity correction enabled: false
Boxcar width: 0
XAxis mode: Wavelengths
Number of Pixels in Spectrum: 2048
>>>>>Begin Spectral Data<<<<<
187,642	-0,8
188,109	-0,8
188,576	-0,8
189,043	-0
189,51	-0,27
189,976	0,42
190,443	-0,24
190,91	-0,24
191,376	-0
191,843	-0
192,309	0,15
192,776	-0
193,242	-0
193,708	-0
194,175	0,31
194,641	-0,22
195,107	-0,11
195,573	-0
196,039	-0,65
196,505	-0
196,971	-0
197,437	-0
197,903	-0,12
198,369	0,1
198,835	0,09
199,301	0,12
199,766	0,13
200,232	0,1
200,698	0,1
201,163	0,1
201,629	0,11
202,094	0,11
202,56	0,12
203,025	0,12
203,49	0,12
203,956	0,11
204,421	0,13
204,886	0,12
205,351	0,13
205,816	0,12
206,281	0,13
206,746	0,12
207,211	0,14
207,676	0,12
208,141	0,14
208,606	0,14
209,071	0,14
209,536	0,16
210	0,19
210,465	0,17
210,929	0,2
211,394	0,21
211,859	0,22
212,323	0,24
212,787	0,27
213,252	0,29
213,716	0,32
214,18	0,35
214,645	0,4
215,109	0,42
215,573	0,47
216,037	0,49
216,501	0,55
216,965	0,6
217,429	0,66
217,893	0,7
218,357	0,78
218,82	0,83
219,284	0,88
219,748	0,94
220,211	0,98
220,675	1,03
221,139	1,1
221,602	1,13
222,066	1,17
222,529	1,21
222,992	1,23
223,456	1,27
223,919	1,31
224,382	1,34
224,845	1,37
225,308	1,39
225,772	1,39
226,235	1,42
226,698	1,44
227,16	1,44
227,623	1,45
228,086	1,46
228,549	1,47
229,012	1,49
229,474	1,5
229,937	1,5
230,4	1,49
230,862	1,51
231,325	1,53
231,787	1,52
232,25	1,5
232,712	1,51
233,174	1,51
233,637	1,52
234,099	1,49
234,561	1,5
235,023	1,52
235,485	1,49
235,947	1,51
236,409	1,5
236,871	1,51
237,333	1,51
237,795	1,51
238,257	1,48
238,718	1,5
239,18	1,49
239,642	1,49
240,103	1,48
240,565	1,49
241,026	1,48
241,488	1,47
241,949	1,48
242,411	1,49
242,872	1,48
243,333	1,46
243,795	1,46
244,256	1,45
244,717	1,45
245,178	1,46
245,639	1,46
246,1	1,45
246,561	1,46
247,022	1,47
247,483	1,48
247,943	1,49
248,404	1,49
248,865	1,5
249,325	1,49
249,786	1,49
250,247	1,49
250,707	1,5
251,168	1,5
251,628	1,5
252,088	1,49
252,549	1,51
253,009	1,5
253,469	1,53
253,929	1,5
254,389	1,52
254,849	1,53
255,309	1,52
255,769	1,52
256,229	1,54
256,689	1,54
257,149	1,54
257,609	1,57
258,069	1,55
258,528	1,56
258,988	1,58
259,448	1,56
259,907	1,56
260,367	1,58
260,826	1,58
261,285	1,58
261,745	1,58
262,204	1,57
262,663	1,57
263,122	1,57
263,582	1,57
264,041	1,6
264,5	1,6
264,959	1,59
265,418	1,59
265,877	1,58
266,336	1,59
266,794	1,59
267,253	1,59
267,712	1,6
268,171	1,58
268,629	1,57
269,088	1,59
269,546	1,59
270,005	1,6
270,463	1,6
270,922	1,59
271,38	1,58
271,838	1,59
272,296	1,59
272,755	1,58
273,213	1,59
273,671	1,59
274,129	1,59
274,587	1,58
275,045	1,59
275,503	1,57
275,961	1,59
276,418	1,58
276,876	1,59
277,334	1,58
277,791	1,57
278,249	1,58
278,707	1,59
279,164	1,59
279,622	1,57
280,079	1,57
280,536	1,59
280,994	1,58
281,451	1,57
281,908	1,57
282,365	1,55
282,822	1,55
283,28	1,56
283,737	1,56
284,193	1,56
284,65	1,55
285,107	1,55
285,564	1,56
286,021	1,54
286,478	1,54
286,934	1,53
287,391	1,53
287,848	1,53
288,304	1,53
288,761	1,51
289,217	1,51
289,673	1,51
290,13	1,52
290,586	1,5
291,042	1,48
291,498	1,49
291,955	1,47
292,411	1,48
292,867	1,46
293,323	1,46
293,779	1,46
294,235	1,44
294,69	1,44
295,146	1,43
295,602	1,42
296,058	1,41
296,513	1,4
296,969	1,39
297,424	1,39
297,88	1,37
298,335	1,36
298,791	1,36
299,246	1,35
299,701	1,33
300,157	1,32
300,612	1,31
301,067	1,3
301,522	1,3
301,977	1,29
302,432	1,28
302,887	1,28
303,342	1,26
303,797	1,26
304,252	1,25
304,707	1,24
305,161	1,23
305,616	1,22
306,071	1,21
306,525	1,21
306,98	1,2
307,434	1,19
307,889	1,18
308,343	1,18
308,797	1,17
309,252	1,15
309,706	1,15
310,16	1,14
310,614	1,14
311,068	1,12
311,522	1,12
311,976	1,1
312,43	1,1
312,884	1,09
313,338	1,08
313,792	1,08
314,245	1,07
314,699	1,06
315,153	1,06
315,606	1,05
316,06	1,04
316,513	1,03
316,967	1,03
317,42	1,03
317,873	1,03
318,327	1,02
318,78	1,01
319,233	1
319,686	0,99
320,139	0,99
320,592	0,99
321,045	0,98
321,498	0,98
321,951	0,97
322,404	0,97
322,857	0,97
323,31	0,96
323,762	0,95
324,215	0,95
324,667	0,94
325,12	0,93
325,573	0,92
326,025	0,91
326,477	0,91
326,93	0,92
327,382	0,92
327,834	0,93
328,286	0,92
328,739	0,91
329,191	0,92
329,643	0,91
330,095	0,9
330,547	0,89
330,999	0,88
331,45	0,87
331,902	0,88
332,354	0,87
332,806	0,86
333,257	0,86
333,709	0,86
334,16	0,85
334,612	0,84
335,063	0,85
335,515	0,85
335,966	0,84
336,417	0,84
336,869	0,84
337,32	0,84
337,771	0,83
338,222	0,82
338,673	0,81
339,124	0,8
339,575	0,8
340,026	0,8
340,477	0,79
340,928	0,79
341,378	0,78
341,829	0,79
342,28	0,77
342,73	0,77
343,181	0,78
343,631	0,76
344,082	0,76
344,532	0,76
344,982	0,76
345,433	0,75
345,883	0,75
346,333	0,75
346,783	0,74
347,233	0,74
347,683	0,74
348,133	0,74
348,583	0,73
349,033	0,73
349,483	0,72
349,933	0,72
350,383	0,72
350,832	0,71
351,282	0,71
351,732	0,71
352,181	0,7
352,631	0,69
353,08	0,7
353,529	0,7
353,979	0,69
354,428	0,69
354,877	0,68
355,327	0,68
355,776	0,67
356,225	0,66
356,674	0,66
357,123	0,66
357,572	0,65
358,021	0,66
358,469	0,65
358,918	0,65
359,367	0,65
359,816	0,65
360,264	0,64
360,713	0,64
361,161	0,63
361,61	0,63
362,058	0,62
362,507	0,62
362,955	0,61
363,403	0,62
363,852	0,61
364,3	0,6
364,748	0,6
365,196	0,6
365,644	0,59
366,092	0,6
366,54	0,59
366,988	0,59
367,436	0,58
367,883	0,58
368,331	0,57
368,779	0,57
369,226	0,57
369,674	0,57
370,121	0,57
370,569	0,56
371,016	0,55
371,464	0,55
371,911	0,54
372,358	0,54
372,805	0,54
373,253	0,54
373,7	0,53
374,147	0,52
374,594	0,53
375,041	0,52
375,488	0,51
375,935	0,51
376,381	0,51
376,828	0,5
377,275	0,5
377,721	0,49
378,168	0,49
378,615	0,48
379,061	0,48
379,508	0,48
379,954	0,47
380,4	0,47
380,847	0,46
381,293	0,47
381,739	0,46
382,185	0,45
382,631	0,45
383,077	0,44
383,523	0,43
383,969	0,43
384,415	0,43
384,861	0,42
385,307	0,42
385,752	0,41
386,198	0,41
386,644	0,41
387,089	0,4
387,535	0,4
387,98	0,39
388,426	0,39
388,871	0,39
389,317	0,38
389,762	0,38
390,207	0,37
390,652	0,37
391,097	0,37
391,542	0,36
391,987	0,36
392,432	0,36
392,877	0,35
393,322	0,35
393,767	0,35
394,212	0,34
394,656	0,34
395,101	0,33
395,546	0,33
395,99	0,33
396,435	0,32
396,879	0,32
397,324	0,32
397,768	0,32
398,212	0,31
398,657	0,31
399,101	0,31
399,545	0,31
399,989	0,3
400,433	0,3
400,877	0,3
401,321	0,29
401,765	0,29
402,209	0,29
402,653	0,29
403,096	0,28
403,54	0,29
403,984	0,28
404,427	0,28
404,871	0,27
405,314	0,27
405,758	0,27
406,201	0,27
406,644	0,26
407,088	0,26
407,531	0,26
407,974	0,26
408,417	0,26
408,86	0,25
409,303	0,25
409,746	0,25
410,189	0,25
410,632	0,25
411,075	0,24
411,517	0,24
411,96	0,24
412,403	0,24
412,845	0,24
413,288	0,24
413,73	0,24
414,173	0,23
414,615	0,23
415,058	0,23
415,5	0,22
415,942	0,22
416,384	0,22
416,826	0,22
417,268	0,22
417,711	0,22
418,152	0,21
418,594	0,22
419,036	0,21
419,478	0,21
419,92	0,21
420,362	0,21
420,803	0,21
421,245	0,21
421,686	0,21
422,128	0,2
422,569	0,2
423,011	0,2
423,452	0,19
423,893	0,2
424,335	0,19
424,776	0,19
425,217	0,19
425,658	0,19
426,099	0,19
426,54	0,19
426,981	0,19
427,422	0,19
427,863	0,18
428,304	0,18
428,744	0,18
429,185	0,18
429,626	0,18
430,066	0,18
430,507	0,17
430,947	0,18
431,388	0,17
431,828	0,17
432,268	0,17
432,709	0,17
433,149	0,17
433,589	0,17
434,029	0,17
434,469	0,17
434,909	0,16
435,349	0,16
435,789	0,16
436,229	0,16
436,669	0,16
437,108	0,16
437,548	0,16
437,988	0,16
438,427	0,16
438,867	0,15
439,306	0,15
439,746	0,15
440,185	0,15
440,624	0,15
441,064	0,15
441,503	0,14
441,942	0,15
442,381	0,15
442,82	0,15
443,259	0,15
443,698	0,14
444,137	0,14
444,576	0,14
445,015	0,14
445,453	0,14
445,892	0,14
446,331	0,14
446,769	0,14
447,208	0,14
447,646	0,14
448,085	0,13
448,523	0,14
448,961	0,13
449,4	0,13
449,838	0,13
450,276	0,13
450,714	0,13
451,152	0,13
451,59	0,13
452,028	0,13
452,466	0,13
452,904	0,12
453,342	0,13
453,779	0,13
454,217	0,12
454,655	0,12
455,092	0,12
455,53	0,12
455,967	0,12
456,405	0,12
456,842	0,12
457,279	0,12
457,717	0,12
458,154	0,11
458,591	0,11
459,028	0,12
459,465	0,12
459,902	0,12
460,339	0,11
460,776	0,12
461,213	0,11
461,65	0,11
462,086	0,11
462,523	0,11
462,96	0,11
463,396	0,11
463,833	0,11
464,269	0,11
464,706	0,11
465,142	0,11
465,578	0,11
466,015	0,11
466,451	0,11
466,887	0,11
467,323	0,11
467,759	0,1
468,195	0,1
468,631	0,11
469,067	0,1
469,503	0,1
469,939	0,1
470,374	0,11
470,81	0,11
471,246	0,1
471,681	0,1
472,117	0,1
472,552	0,1
472,988	0,1
473,423	0,1
473,858	0,1
474,294	0,1
474,729	0,1
475,164	0,1
475,599	0,1
476,034	0,1
476,469	0,1
476,904	0,1
477,339	0,1
477,774	0,1
478,208	0,09
478,643	0,1
479,078	0,1
479,512	0,1
479,947	0,1
480,381	0,1
480,816	0,1
481,25	0,1
481,685	0,1
482,119	0,1
482,553	0,1
482,987	0,09
483,421	0,09
483,856	0,09
484,29	0,09
484,724	0,09
485,157	0,09
485,591	0,09
486,025	0,09
486,459	0,09
486,893	0,09
487,326	0,09
487,76	0,09
488,193	0,09
488,627	0,09
489,06	0,09
489,494	0,09
489,927	0,09
490,36	0,09
490,794	0,09
491,227	0,09
491,66	0,09
492,093	0,09
492,526	0,09
492,959	0,09
493,392	0,09
493,825	0,09
494,257	0,09
494,69	0,09
495,123	0,09
495,555	0,09
495,988	0,08
496,421	0,09
496,853	0,09
497,285	0,09
497,718	0,08
498,15	0,08
498,582	0,08
499,015	0,08
499,447	0,09
499,879	0,08
500,311	0,09
500,743	0,08
501,175	0,08
501,607	0,08
502,038	0,08
502,47	0,08
502,902	0,08
503,334	0,08
503,765	0,08
504,197	0,08
504,628	0,08
505,06	0,08
505,491	0,08
505,922	0,08
506,354	0,08
506,785	0,08
507,216	0,08
507,647	0,08
508,078	0,08
508,509	0,08
508,94	0,08
509,371	0,08
509,802	0,08
510,233	0,08
510,664	0,08
511,094	0,08
511,525	0,08
511,955	0,08
512,386	0,08
512,816	0,08
513,247	0,08
513,677	0,08
514,108	0,08
514,538	0,08
514,968	0,08
515,398	0,08
515,828	0,08
516,258	0,09
516,688	0,08
517,118	0,08
517,548	0,08
517,978	0,08
518,408	0,08
518,837	0,08
519,267	0,08
519,697	0,08
520,126	0,08
520,556	0,08
520,985	0,08
521,415	0,08
521,844	0,08
522,273	0,08
522,702	0,08
523,132	0,08
523,561	0,08
523,99	0,08
524,419	0,08
524,848	0,08
525,277	0,08
525,705	0,08
526,134	0,08
526,563	0,08
526,992	0,08
527,42	0,08
527,849	0,08
528,277	0,08
528,706	0,08
529,134	0,08
529,563	0,08
529,991	0,08
530,419	0,08
530,847	0,08
531,275	0,08
531,703	0,08
532,131	0,08
532,559	0,08
532,987	0,08
533,415	0,08
533,843	0,08
534,271	0,08
534,698	0,08
535,126	0,08
535,554	0,08
535,981	0,08
536,409	0,08
536,836	0,08
537,264	0,08
537,691	0,08
538,118	0,08
538,545	0,08
538,972	0,08
539,4	0,08
539,827	0,08
540,254	0,08
540,681	0,08
541,107	0,08
541,534	0,08
541,961	0,08
542,388	0,08
542,814	0,08
543,241	0,08
543,667	0,08
544,094	0,08
544,52	0,08
544,947	0,08
545,373	0,08
545,799	0,08
546,226	0,08
546,652	0,08
547,078	0,08
547,504	0,08
547,93	0,08
548,356	0,08
548,782	0,08
549,208	0,08
549,633	0,08
550,059	0,08
550,485	0,08
550,91	0,08
551,336	0,08
551,761	0,08
552,187	0,08
552,612	0,08
553,038	0,08
553,463	0,08
553,888	0,08
554,313	0,08
554,738	0,08
555,163	0,08
555,588	0,08
556,013	0,08
556,438	0,08
556,863	0,08
557,288	0,08
557,713	0,08
558,137	0,08
558,562	0,08
558,986	0,08
559,411	0,08
559,835	0,08
560,26	0,08
560,684	0,08
561,108	0,08
561,533	0,08
561,957	0,08
562,381	0,08
562,805	0,08
563,229	0,08
563,653	0,08
564,077	0,08
564,501	0,08
564,925	0,08
565,348	0,08
565,772	0,08
566,196	0,08
566,619	0,08
567,043	0,08
567,466	0,08
567,89	0,08
568,313	0,08
568,736	0,08
569,159	0,07
569,583	0,08
570,006	0,07
570,429	0,07
570,852	0,08
571,275	0,07
571,698	0,07
572,12	0,07
572,543	0,07
572,966	0,07
573,389	0,07
573,811	0,07
574,234	0,07
574,656	0,07
575,079	0,07
575,501	0,07
575,924	0,07
576,346	0,07
576,768	0,07
577,19	0,07
577,612	0,07
578,034	0,07
578,456	0,07
578,878	0,07
579,3	0,07
579,722	0,07
580,144	0,07
580,566	0,07
580,987	0,07
581,409	0,07
581,83	0,07
582,252	0,07
582,673	0,07
583,095	0,07
583,516	0,06
583,937	0,06
584,359	0,06
584,78	0,07
585,201	0,07
585,622	0,07
586,043	0,07
586,464	0,07
586,885	0,06
587,306	0,07
587,726	0,07
588,147	0,06
588,568	0,06
588,988	0,07
589,409	0,07
589,83	0,07
590,25	0,07
590,67	0,07
591,091	0,07
591,511	0,07
591,931	0,07
592,351	0,07
592,771	0,07
593,192	0,07
593,612	0,07
594,031	0,07
594,451	0,06
594,871	0,07
595,291	0,07
595,711	0,07
596,13	0,07
596,55	0,07
596,969	0,07
597,389	0,07
597,808	0,07
598,228	0,07
598,647	0,07
599,066	0,07
599,486	0,07
599,905	0,06
600,324	0,06
600,743	0,06
601,162	0,06
601,581	0,06
602	0,06
602,418	0,06
602,837	0,07
603,256	0,07
603,674	0,07
604,093	0,07
604,512	0,07
604,93	0,06
605,349	0,07
605,767	0,06
606,185	0,06
606,603	0,06
607,022	0,06
607,44	0,06
607,858	0,06
608,276	0,06
608,694	0,06
609,112	0,06
609,53	0,06
609,947	0,06
610,365	0,06
610,783	0,06
611,2	0,07
611,618	0,07
612,036	0,07
612,453	0,06
612,87	0,06
613,288	0,07
613,705	0,07
614,122	0,07
614,539	0,07
614,957	0,07
615,374	0,06
615,791	0,06
616,208	0,06
616,624	0,06
617,041	0,06
617,458	0,06
617,875	0,07
618,291	0,07
618,708	0,07
619,125	0,07
619,541	0,07
619,958	0,07
620,374	0,07
620,79	0,07
621,206	0,07
621,623	0,07
622,039	0,07
622,455	0,07
622,871	0,07
623,287	0,07
623,703	0,07
624,119	0,07
624,535	0,07
624,95	0,07
625,366	0,07
625,782	0,07
626,197	0,06
626,613	0,07
627,028	0,07
627,444	0,07
627,859	0,07
628,274	0,07
628,69	0,07
629,105	0,07
629,52	0,07
629,935	0,07
630,35	0,07
630,765	0,07
631,18	0,07
631,595	0,07
632,009	0,07
632,424	0,07
632,839	0,07
633,253	0,07
633,668	0,07
634,082	0,07
634,497	0,07
634,911	0,07
635,326	0,07
635,74	0,07
636,154	0,07
636,568	0,07
636,982	0,07
637,396	0,07
637,81	0,07
638,224	0,07
638,638	0,07
639,052	0,07
639,466	0,07
639,879	0,07
640,293	0,07
640,707	0,07
641,12	0,07
641,534	0,07
641,947	0,07
642,36	0,07
642,774	0,07
643,187	0,07
643,6	0,07
644,013	0,07
644,426	0,07
644,839	0,07
645,252	0,06
645,665	0,07
646,078	0,07
646,491	0,07
646,904	0,07
647,316	0,07
647,729	0,07
648,141	0,07
648,554	0,07
648,966	0,07
649,379	0,07
649,791	0,07
650,203	0,06
650,615	0,06
651,028	0,06
651,44	0,06
651,852	0,06
652,264	0,07
652,676	0,06
653,087	0,07
653,499	0,06
653,911	0,07
654,323	0,06
654,734	0,06
655,146	0,06
655,557	0,06
655,969	0,06
656,38	0,06
656,792	0,06
657,203	0,06
657,614	0,05
658,025	0,06
658,436	0,06
658,847	0,06
659,258	0,06
659,669	0,06
660,08	0,06
660,491	0,06
660,902	0,06
661,312	0,06
661,723	0,06
662,134	0,06
662,544	0,06
662,955	0,06
663,365	0,06
663,775	0,06
664,186	0,06
664,596	0,06
665,006	0,06
665,416	0,06
665,826	0,06
666,236	0,06
666,646	0,06
667,056	0,06
667,466	0,06
667,876	0,06
668,286	0,06
668,695	0,06
669,105	0,06
669,514	0,06
669,924	0,06
670,333	0,06
670,743	0,06
671,152	0,06
671,561	0,06
671,97	0,06
672,38	0,06
672,789	0,06
673,198	0,06
673,607	0,06
674,016	0,06
674,424	0,06
674,833	0,06
675,242	0,06
675,651	0,06
676,059	0,06
676,468	0,06
676,876	0,06
677,285	0,06
677,693	0,06
678,101	0,06
678,51	0,06
678,918	0,06
679,326	0,06
679,734	0,06
680,142	0,06
680,55	0,06
680,958	0,06
681,366	0,06
681,774	0,06
682,181	0,06
682,589	0,06
682,997	0,06
683,404	0,06
683,812	0,06
684,219	0,06
684,627	0,06
685,034	0,06
685,441	0,06
685,848	0,06
686,256	0,06
686,663	0,06
687,07	0,06
687,477	0,06
687,884	0,06
688,29	0,06
688,697	0,06
689,104	0,06
689,511	0,06
689,917	0,06
690,324	0,06
690,73	0,06
691,137	0,06
691,543	0,06
691,95	0,06
692,356	0,06
692,762	0,06
693,168	0,06
693,574	0,06
693,98	0,06
694,386	0,06
694,792	0,06
695,198	0,06
695,604	0,06
696,01	0,06
696,415	0,06
696,821	0,06
697,227	0,06
697,632	0,06
698,038	0,05
698,443	0,06
698,848	0,06
699,254	0,05
699,659	0,05
700,064	0,06
700,469	0,06
700,874	0,06
701,279	0,06
701,684	0,05
702,089	0,05
702,494	0,06
702,898	0,06
703,303	0,06
703,708	0,06
704,112	0,05
704,517	0,06
704,921	0,05
705,326	0,05
705,73	0,06
706,134	0,06
706,538	0,05
706,943	0,05
707,347	0,06
707,751	0,06
708,155	0,06
708,559	0,05
708,963	0,05
709,366	0,05
709,77	0,05
710,174	0,05
710,577	0,05
710,981	0,05
711,384	0,06
711,788	0,06
712,191	0,05
712,595	0,05
712,998	0,05
713,401	0,05
713,804	0,05
714,207	0,05
714,61	0,05
715,013	0,05
715,416	0,05
715,819	0,05
716,222	0,05
716,625	0,05
717,027	0,05
717,43	0,05
717,833	0,05
718,235	0,05
718,638	0,05
719,04	0,05
719,442	0,05
719,844	0,05
720,247	0,05
720,649	0,05
721,051	0,05
721,453	0,05
721,855	0,05
722,257	0,05
722,659	0,05
723,06	0,05
723,462	0,05
723,864	0,05
724,265	0,05
724,667	0,05
725,069	0,05
725,47	0,05
725,871	0,05
726,273	0,05
726,674	0,05
727,075	0,05
727,476	0,05
727,877	0,05
728,278	0,05
728,679	0,05
729,08	0,05
729,481	0,05
729,882	0,05
730,282	0,05
730,683	0,05
731,084	0,05
731,484	0,05
731,885	0,05
732,285	0,05
732,686	0,05
733,086	0,05
733,486	0,05
733,886	0,05
734,286	0,05
734,686	0,05
735,086	0,05
735,486	0,05
735,886	0,05
736,286	0,05
736,686	0,05
737,086	0,05
737,485	0,05
737,885	0,05
738,284	0,05
738,684	0,05
739,083	0,05
739,482	0,05
739,882	0,05
740,281	0,05
740,68	0,05
741,079	0,05
741,478	0,05
741,877	0,05
742,276	0,05
742,675	0,05
743,074	0,05
743,473	0,05
743,871	0,05
744,27	0,05
744,668	0,05
745,067	0,05
745,465	0,05
745,864	0,05
746,262	0,05
746,66	0,05
747,059	0,05
747,457	0,05
747,855	0,05
748,253	0,05
748,651	0,05
749,049	0,05
749,447	0,05
749,844	0,05
750,242	0,05
750,64	0,05
751,037	0,05
751,435	0,05
751,832	0,05
752,23	0,05
752,627	0,05
753,024	0,05
753,422	0,05
753,819	0,05
754,216	0,05
754,613	0,05
755,01	0,05
755,407	0,05
755,804	0,05
756,201	0,05
756,597	0,05
756,994	0,05
757,391	0,05
757,787	0,05
758,184	0,05
758,58	0,05
758,977	0,05
759,373	0,05
759,769	0,05
760,166	0,05
760,562	0,05
760,958	0,05
761,354	0,05
761,75	0,05
762,146	0,05
762,542	0,05
762,937	0,05
763,333	0,05
763,729	0,05
764,124	0,05
764,52	0,05
764,915	0,05
765,311	0,05
765,706	0,05
766,101	0,05
766,497	0,05
766,892	0,05
767,287	0,05
767,682	0,05
768,077	0,05
768,472	0,05
768,867	0,05
769,262	0,05
769,657	0,05
770,051	0,05
770,446	0,05
770,84	0,05
771,235	0,05
771,629	0,05
772,024	0,05
772,418	0,05
772,812	0,05
773,207	0,05
773,601	0,05
773,995	0,05
774,389	0,05
774,783	0,05
775,177	0,05
775,571	0,05
775,964	0,05
776,358	0,05
776,752	0,05
777,145	0,05
777,539	0,05
777,932	0,05
778,326	0,05
778,719	0,05
779,113	0,05
779,506	0,05
779,899	0,05
780,292	0,05
780,685	0,05
781,078	0,05
781,471	0,05
781,864	0,05
782,257	0,05
782,65	0,05
783,042	0,05
783,435	0,05
783,827	0,05
784,22	0,05
784,612	0,05
785,005	0,05
785,397	0,05
785,789	0,05
786,182	0,05
786,574	0,05
786,966	0,05
787,358	0,05
787,75	0,05
788,142	0,05
788,534	0,05
788,925	0,05
789,317	0,05
789,709	0,05
790,1	0,05
790,492	0,05
790,883	0,05
791,275	0,05
791,666	0,05
792,057	0,05
792,449	0,05
792,84	0,05
793,231	0,05
793,622	0,05
794,013	0,05
794,404	0,05
794,795	0,05
795,185	0,05
795,576	0,05
795,967	0,05
796,357	0,05
796,748	0,05
797,138	0,05
797,529	0,05
797,919	0,05
798,31	0,06
798,7	0,05
799,09	0,05
799,48	0,05
799,87	0,05
800,26	0,05
800,65	0,05
801,04	0,06
801,43	0,05
801,82	0,06
802,209	0,05
802,599	0,05
802,988	0,05
803,378	0,05
803,767	0,05
804,157	0,06
804,546	0,05
804,935	0,06
805,325	0,05
805,714	0,06
806,103	0,06
806,492	0,06
806,881	0,05
807,27	0,05
807,658	0,05
808,047	0,06
808,436	0,06
808,824	0,06
809,213	0,06
809,602	0,06
809,99	0,06
810,378	0,06
810,767	0,05
811,155	0,06
811,543	0,06
811,931	0,06
812,319	0,06
812,708	0,06
813,095	0,06
813,483	0,06
813,871	0,06
814,259	0,06
814,647	0,06
815,034	0,06
815,422	0,06
815,809	0,06
816,197	0,06
816,584	0,06
816,972	0,06
817,359	0,06
817,746	0,06
818,133	0,06
818,52	0,06
818,907	0,06
819,294	0,06
819,681	0,06
820,068	0,06
820,455	0,06
820,842	0,06
821,228	0,06
821,615	0,06
822,002	0,06
822,388	0,06
822,774	0,06
823,161	0,06
823,547	0,06
823,933	0,06
824,319	0,06
824,706	0,06
825,092	0,06
825,478	0,06
825,863	0,06
826,249	0,06
826,635	0,06
827,021	0,06
827,407	0,06
827,792	0,06
828,178	0,06
828,563	0,06
828,949	0,06
829,334	0,06
829,719	0,06
830,104	0,06
830,49	0,06
830,875	0,06
831,26	0,06
831,645	0,06
832,03	0,06
832,415	0,06
832,799	0,06
833,184	0,06
833,569	0,07
833,953	0,06
834,338	0,06
834,722	0,06
835,107	0,06
835,491	0,06
835,875	0,06
836,26	0,06
836,644	0,06
837,028	0,06
837,412	0,06
837,796	0,06
838,18	0,06
838,564	0,06
838,948	0,06
839,331	0,06
839,715	0,06
840,099	0,06
840,482	0,06
840,866	0,06
841,249	0,06
841,632	0,06
842,016	0,06
842,399	0,06
842,782	0,06
843,165	0,06
843,548	0,06
843,931	0,07
844,314	0,07
844,697	0,06
845,08	0,06
845,463	0,06
845,845	0,07
846,228	0,06
846,61	0,07
846,993	0,06
847,375	0,07
847,758	0,06
848,14	0,06
848,522	0,06
848,904	0,07
849,286	0,06
849,668	0,07
850,05	0,06
850,432	0,07
850,814	0,06
851,196	0,06
851,578	0,07
851,959	0,07
852,341	0,07
852,722	0,07
853,104	0,06
853,485	0,06
853,867	0,06
854,248	0,07
854,629	0,06
855,01	0,07
855,391	0,07
855,773	0,07
856,153	0,07
856,534	0,07
856,915	0,07
857,296	0,07
857,677	0,07
858,057	0,07
858,438	0,07
858,819	0,07
859,199	0,07
859,579	0,07
859,96	0,07
860,34	0,07
860,72	0,07
861,1	0,07
861,48	0,07
861,86	0,07
862,24	0,07
862,62	0,07
863	0,07
863,38	0,07
863,76	0,07
864,139	0,07
864,519	0,07
864,898	0,07
865,278	0,07
865,657	0,07
866,037	0,07
866,416	0,07
866,795	0,07
867,174	0,07
867,553	0,07
867,932	0,07
868,311	0,07
868,69	0,07
869,069	0,07
869,448	0,07
869,826	0,07
870,205	0,07
870,584	0,07
870,962	0,07
871,341	0,07
871,719	0,07
872,097	0,07
872,475	0,07
872,854	0,07
873,232	0,07
873,61	0,07
873,988	0,07
874,366	0,07
874,744	0,07
875,121	0,07
875,499	0,07
875,877	0,07
876,255	0,07
876,632	0,07
877,01	0,07
877,387	0,07
877,764	0,07
878,142	0,07
878,519	0,07
878,896	0,07
879,273	0,07
879,65	0,07
880,027	0,07
880,404	0,07
880,781	0,07
881,158	0,07
881,534	0,07
881,911	0,07
882,288	0,07
882,664	0,07
883,041	0,07
883,417	0,07
883,793	0,07
884,17	0,07
884,546	0,07
884,922	0,07
885,298	0,07
885,674	0,07
886,05	0,07
886,426	0,07
886,802	0,07
887,178	0,07
887,553	0,07
887,929	0,07
888,305	0,07
888,68	0,07
889,056	0,07
889,431	0,07
889,806	0,07
890,182	0,07
890,557	0,07
890,932	0,07
891,307	0,07
891,682	0,07
892,057	0,07
892,432	0,07
892,807	0,07
893,181	0,07
893,556	0,07
893,931	0,07
894,305	0,07
894,68	0,07
895,054	0,07
895,428	0,07
895,803	0,07
896,177	0,07
896,551	0,07
896,925	0,07
897,299	0,07
897,673	0,07
898,047	0,07
898,421	0,07
898,795	0,07
899,169	0,07
899,542	0,07
899,916	0,07
900,289	0,07
900,663	0,07
901,036	0,07
901,41	0,07
901,783	0,07
902,156	0,07
902,529	0,07
902,902	0,07
903,275	0,07
903,648	0,07
904,021	0,07
904,394	0,07
904,767	0,07
905,139	0,07
905,512	0,07
905,885	0,07
906,257	0,07
906,629	0,07
907,002	0,07
907,374	0,07
907,746	0,07
908,119	0,07
908,491	0,06
908,863	0,07
909,235	0,06
909,607	0,07
909,978	0,07
910,35	0,07
910,722	0,07
911,094	0,07
911,465	0,06
911,837	0,06
912,208	0,06
912,58	0,06
912,951	0,06
913,322	0,05
913,693	0,05
914,065	0,06
914,436	0,06
914,807	0,06
915,178	0,06
915,548	0,05
915,919	0,05
916,29	0,05
916,661	0,06
917,031	0,06
917,402	0,05
917,772	0,05
918,143	0,05
918,513	0,05
918,884	0,05
919,254	0,06
919,624	0,05
919,994	0,05
920,364	0,05
920,734	0,05
921,104	0,05
921,474	0,05
921,844	0,05
922,213	0,04
922,583	0,04
922,953	0,05
923,322	0,04
923,692	0,05
924,061	0,05
924,43	0,04
924,8	0,04
925,169	0,04
925,538	0,05
925,907	0,04
926,276	0,04
926,645	0,04
927,014	0,04
927,383	0,04
927,751	0,04
928,12	0,04
928,489	0,04
928,857	0,04
929,226	0,04
929,594	0,04
929,962	0,04
930,331	0,04
930,699	0,04
931,067	0,04
931,435	0,04
931,803	0,03
932,171	0,03
932,539	0,03
932,907	0,03
933,275	0,03
933,642	0,03
934,01	0,02
934,378	0,03
934,745	0,04
935,113	0,03
935,48	0,03
935,847	0,03
936,215	0,03
936,582	0,03
936,949	0,03
937,316	0,03
937,683	0,02
938,05	0,03
938,417	0,02
938,783	0,02
939,15	0,03
939,517	0,02
939,883	0,02
940,25	0,03
940,616	0,03
940,983	0,02
941,349	0,02
941,715	0,02
942,082	0,02
942,448	0,01
942,814	0,03
943,18	0,02
943,546	0,03
943,912	0,02
944,277	0,02
944,643	0,02
945,009	0,03
945,374	0,02
945,74	0,02
946,105	0,03
946,471	0,02
946,836	0,02
947,202	0,02
947,567	0,01
947,932	0,01
948,297	0,01
948,662	0,03
949,027	0,03
949,392	0,02
949,757	0,02
950,121	0,02
950,486	0,01
950,851	0,01
951,215	0,02
951,58	0,02
951,944	0,02
952,309	0,02
952,673	0,02
953,037	0,01
953,401	0,02
953,765	0,02
954,129	0,01
954,493	0,03
954,857	0,01
955,221	0,02
955,585	0,02
955,949	0,02
956,312	0,02
956,676	0
957,039	0,01
957,403	0,02
957,766	0,01
958,13	0,01
958,493	0,02
958,856	0,01
959,219	0,02
959,582	0,03
959,945	0,01
960,308	0,02
960,671	0,01
961,034	-0,01
961,396	0,03
961,759	0,01
962,122	0,02
962,484	0,02
962,847	0,02
963,209	0,01
963,571	-0,01
963,934	0,02
964,296	0,02
964,658	0,01
965,02	0,01
965,382	0,02
965,744	0,01
966,106	0,01
966,468	0,02
966,829	0,01
967,191	0,02
967,553	0,02
967,914	0,04
968,276	0
968,637	0,01
968,998	0,03
969,36	0,02
969,721	0,03
970,082	0
970,443	0,01
970,804	0,01
971,165	0,02
971,526	0,01
971,887	0,02
972,247	-0,01
972,608	0,03
972,969	0,01
973,329	0,01
973,69	0
974,05	0,02
974,41	0,04
974,771	0,02
975,131	0,01
975,491	0,04
975,851	0,04
976,211	0,02
976,571	0,03
976,931	0,01
977,291	0,05
977,65	0,03
978,01	0,01
978,37	0,02
978,729	0,02
979,089	0,03
979,448	0,03
979,807	0,01
980,167	0,02
980,526	0,05
980,885	0,02
981,244	0,03
981,603	0,02
981,962	0,05
982,321	0,06
982,68	0,05
983,038	0,02
983,397	0,03
983,756	0,03
984,114	0,06
984,473	0,02
984,831	0,04
985,19	0,02
985,548	0,05
985,906	0,08
986,264	0,05
986,622	0,05
986,98	0,03
987,338	0,01
987,696	0,03
988,054	0,04
988,412	0,04
988,769	0,04
989,127	0,02
989,484	0,03
989,842	0,04
990,199	0,06
990,557	0,01
990,914	0,02
991,271	0,06
991,628	0,06
991,985	0,03
992,342	0,03
992,699	0,05
993,056	0,05
993,413	0,01
993,77	0,03
994,126	0,02
994,483	0,04
994,84	0,03
995,196	0,05
995,552	0,04
995,909	0,05
996,265	0,06
996,621	0,01
996,977	0,04
997,333	0,04
997,689	0,03
998,045	0,05
998,401	0,08
998,757	0,06
999,113	0,02
999,468	0,03
999,824	0,05
1000,18	0,05
1000,535	0,05
1000,89	0,08
1001,246	0,03
1001,601	0,01
1001,956	0,07
1002,311	0,02
1002,666	0,03
1003,021	0,03
1003,376	0,03
1003,731	0,07
1004,086	0,02
1004,441	0,02
1004,795	0,06
1005,15	0,09
1005,505	-0,01
1005,859	0,03
1006,213	0,04
1006,568	-0,01
1006,922	0,05
1007,276	-0
1007,63	0,08
1007,984	0,05
1008,338	0,04
1008,692	0,04
1009,046	0,02
1009,4	0,05
1009,754	0,04
1010,107	0,02
1010,461	-0
1010,814	0,06
1011,168	0,05
1011,521	0,07
1011,874	0,03
1012,228	0,05
1012,581	0,05
1012,934	0,01
1013,287	0,01
1013,64	0,06
1013,993	0,04
1014,346	0,05
1014,699	0,02
1015,051	0,01
1015,404	0,04
1015,756	0,02
1016,109	0,1
1016,461	0,05
1016,814	0,01
1017,166	0,01
1017,518	0,02
1017,87	0,08
1018,223	0,06
1018,575	0,06
1018,927	0,03
1019,278	0,06
1019,63	0,02
1019,982	0,01
1020,334	0,08
1020,685	0,1
1021,037	0,03
1021,388	0,01
1021,74	0,01
1022,091	0,05
1022,442	0,06
1022,794	0,08
1023,145	0,07
1023,496	0,02
1023,847	0,02
1024,198	0,06
1024,549	0,09
1024,9	0,06
1025,25	0,04
1025,601	0,05
1025,952	0,04
1026,302	0,02
1026,653	0,08
1027,003	0,02
1027,353	-0,02
1027,704	0,02
1028,054	0,03
1028,404	0,1
1028,754	0,02
1029,104	0,04
1029,454	0,05
1029,804	-0,01
1030,154	0,05
1030,503	0,05
1030,853	0,05
