Data from Absorbance__54__15-31-37-064.txt Node

Date: Wed May 05 15:31:37 CEST 2021
User: thoma
Spectrometer: FLMS06037
Trigger mode: 0
Integration Time (sec): 1,451500E-1
Scans to average: 10
Electric dark correction enabled: true
Nonlinearity correction enabled: false
Boxcar width: 0
XAxis mode: Wavelengths
Number of Pixels in Spectrum: 2048
>>>>>Begin Spectral Data<<<<<
187,642	-0,15
188,109	-0,15
188,576	-0,15
189,043	-0
189,51	-0,39
189,976	-0,16
190,443	-0,46
190,91	0,38
191,376	0,84
191,843	-0
192,309	0,17
192,776	-0
193,242	-0,44
193,708	-0,26
194,175	-0,02
194,641	-0,17
195,107	0,51
195,573	-0
196,039	-0,21
196,505	-0
196,971	-0
197,437	-0
197,903	-0,07
198,369	0,09
198,835	0,05
199,301	0,07
199,766	0,08
200,232	0,09
200,698	0,06
201,163	0,09
201,629	0,08
202,094	0,07
202,56	0,07
203,025	0,09
203,49	0,09
203,956	0,07
204,421	0,09
204,886	0,09
205,351	0,08
205,816	0,1
206,281	0,08
206,746	0,1
207,211	0,1
207,676	0,09
208,141	0,12
208,606	0,11
209,071	0,12
209,536	0,13
210	0,14
210,465	0,14
210,929	0,16
211,394	0,18
211,859	0,18
212,323	0,21
212,787	0,25
213,252	0,25
213,716	0,29
214,18	0,31
214,645	0,37
215,109	0,4
215,573	0,42
216,037	0,48
216,501	0,54
216,965	0,59
217,429	0,64
217,893	0,68
218,357	0,74
218,82	0,79
219,284	0,83
219,748	0,91
220,211	0,95
220,675	1
221,139	1,05
221,602	1,08
222,066	1,13
222,529	1,16
222,992	1,2
223,456	1,24
223,919	1,28
224,382	1,32
224,845	1,33
225,308	1,34
225,772	1,36
226,235	1,39
226,698	1,4
227,16	1,41
227,623	1,43
228,086	1,41
228,549	1,44
229,012	1,44
229,474	1,46
229,937	1,47
230,4	1,47
230,862	1,49
231,325	1,49
231,787	1,48
232,25	1,48
232,712	1,48
233,174	1,47
233,637	1,48
234,099	1,48
234,561	1,48
235,023	1,47
235,485	1,48
235,947	1,47
236,409	1,46
236,871	1,48
237,333	1,48
237,795	1,47
238,257	1,46
238,718	1,48
239,18	1,47
239,642	1,45
240,103	1,45
240,565	1,45
241,026	1,47
241,488	1,44
241,949	1,44
242,411	1,45
242,872	1,46
243,333	1,44
243,795	1,44
244,256	1,43
244,717	1,42
245,178	1,43
245,639	1,44
246,1	1,42
246,561	1,43
247,022	1,44
247,483	1,45
247,943	1,47
248,404	1,46
248,865	1,45
249,325	1,45
249,786	1,48
250,247	1,47
250,707	1,47
251,168	1,47
251,628	1,47
252,088	1,47
252,549	1,49
253,009	1,48
253,469	1,5
253,929	1,47
254,389	1,49
254,849	1,49
255,309	1,5
255,769	1,5
256,229	1,5
256,689	1,5
257,149	1,5
257,609	1,54
258,069	1,54
258,528	1,55
258,988	1,54
259,448	1,55
259,907	1,53
260,367	1,54
260,826	1,56
261,285	1,56
261,745	1,55
262,204	1,54
262,663	1,56
263,122	1,54
263,582	1,55
264,041	1,56
264,5	1,57
264,959	1,56
265,418	1,56
265,877	1,55
266,336	1,55
266,794	1,56
267,253	1,56
267,712	1,56
268,171	1,54
268,629	1,55
269,088	1,57
269,546	1,56
270,005	1,57
270,463	1,57
270,922	1,56
271,38	1,55
271,838	1,57
272,296	1,56
272,755	1,56
273,213	1,55
273,671	1,57
274,129	1,54
274,587	1,55
275,045	1,55
275,503	1,54
275,961	1,56
276,418	1,56
276,876	1,55
277,334	1,57
277,791	1,55
278,249	1,55
278,707	1,55
279,164	1,55
279,622	1,55
280,079	1,54
280,536	1,56
280,994	1,56
281,451	1,54
281,908	1,54
282,365	1,52
282,822	1,54
283,28	1,53
283,737	1,54
284,193	1,53
284,65	1,52
285,107	1,53
285,564	1,52
286,021	1,51
286,478	1,52
286,934	1,51
287,391	1,51
287,848	1,51
288,304	1,51
288,761	1,49
289,217	1,48
289,673	1,49
290,13	1,49
290,586	1,47
291,042	1,47
291,498	1,47
291,955	1,45
292,411	1,44
292,867	1,43
293,323	1,44
293,779	1,44
294,235	1,41
294,69	1,41
295,146	1,41
295,602	1,4
296,058	1,39
296,513	1,39
296,969	1,37
297,424	1,37
297,88	1,36
298,335	1,33
298,791	1,34
299,246	1,32
299,701	1,32
300,157	1,31
300,612	1,3
301,067	1,29
301,522	1,28
301,977	1,27
302,432	1,26
302,887	1,27
303,342	1,25
303,797	1,25
304,252	1,23
304,707	1,22
305,161	1,21
305,616	1,21
306,071	1,21
306,525	1,19
306,98	1,17
307,434	1,17
307,889	1,16
308,343	1,17
308,797	1,15
309,252	1,14
309,706	1,14
310,16	1,12
310,614	1,12
311,068	1,12
311,522	1,1
311,976	1,09
312,43	1,08
312,884	1,08
313,338	1,07
313,792	1,07
314,245	1,06
314,699	1,06
315,153	1,04
315,606	1,04
316,06	1,03
316,513	1,03
316,967	1,01
317,42	1,02
317,873	1,01
318,327	1
318,78	1
319,233	0,99
319,686	0,99
320,139	0,98
320,592	0,98
321,045	0,98
321,498	0,97
321,951	0,96
322,404	0,96
322,857	0,95
323,31	0,94
323,762	0,94
324,215	0,93
324,667	0,93
325,12	0,92
325,573	0,91
326,025	0,9
326,477	0,9
326,93	0,9
327,382	0,91
327,834	0,92
328,286	0,91
328,739	0,91
329,191	0,91
329,643	0,9
330,095	0,89
330,547	0,88
330,999	0,88
331,45	0,87
331,902	0,87
332,354	0,86
332,806	0,85
333,257	0,86
333,709	0,85
334,16	0,84
334,612	0,84
335,063	0,84
335,515	0,84
335,966	0,83
336,417	0,84
336,869	0,83
337,32	0,82
337,771	0,82
338,222	0,81
338,673	0,8
339,124	0,79
339,575	0,79
340,026	0,78
340,477	0,78
340,928	0,78
341,378	0,78
341,829	0,77
342,28	0,77
342,73	0,76
343,181	0,76
343,631	0,76
344,082	0,75
344,532	0,75
344,982	0,75
345,433	0,75
345,883	0,74
346,333	0,74
346,783	0,73
347,233	0,73
347,683	0,73
348,133	0,72
348,583	0,72
349,033	0,72
349,483	0,72
349,933	0,72
350,383	0,71
350,832	0,7
351,282	0,7
351,732	0,7
352,181	0,69
352,631	0,69
353,08	0,69
353,529	0,69
353,979	0,68
354,428	0,67
354,877	0,67
355,327	0,67
355,776	0,67
356,225	0,66
356,674	0,66
357,123	0,65
357,572	0,65
358,021	0,65
358,469	0,64
358,918	0,64
359,367	0,64
359,816	0,63
360,264	0,63
360,713	0,63
361,161	0,62
361,61	0,62
362,058	0,62
362,507	0,61
362,955	0,61
363,403	0,61
363,852	0,61
364,3	0,6
364,748	0,6
365,196	0,6
365,644	0,59
366,092	0,59
366,54	0,58
366,988	0,58
367,436	0,57
367,883	0,57
368,331	0,57
368,779	0,56
369,226	0,56
369,674	0,56
370,121	0,56
370,569	0,55
371,016	0,55
371,464	0,54
371,911	0,54
372,358	0,54
372,805	0,54
373,253	0,53
373,7	0,53
374,147	0,52
374,594	0,52
375,041	0,51
375,488	0,51
375,935	0,5
376,381	0,5
376,828	0,49
377,275	0,49
377,721	0,49
378,168	0,48
378,615	0,48
379,061	0,47
379,508	0,47
379,954	0,47
380,4	0,46
380,847	0,46
381,293	0,45
381,739	0,45
382,185	0,44
382,631	0,44
383,077	0,43
383,523	0,43
383,969	0,43
384,415	0,42
384,861	0,42
385,307	0,41
385,752	0,41
386,198	0,41
386,644	0,4
387,089	0,39
387,535	0,39
387,98	0,39
388,426	0,39
388,871	0,38
389,317	0,38
389,762	0,37
390,207	0,37
390,652	0,36
391,097	0,36
391,542	0,36
391,987	0,35
392,432	0,35
392,877	0,35
393,322	0,34
393,767	0,34
394,212	0,34
394,656	0,33
395,101	0,33
395,546	0,32
395,99	0,33
396,435	0,32
396,879	0,32
397,324	0,31
397,768	0,31
398,212	0,31
398,657	0,3
399,101	0,31
399,545	0,3
399,989	0,3
400,433	0,3
400,877	0,29
401,321	0,29
401,765	0,29
402,209	0,28
402,653	0,28
403,096	0,28
403,54	0,28
403,984	0,27
404,427	0,27
404,871	0,27
405,314	0,27
405,758	0,26
406,201	0,26
406,644	0,26
407,088	0,26
407,531	0,26
407,974	0,26
408,417	0,25
408,86	0,25
409,303	0,25
409,746	0,24
410,189	0,24
410,632	0,24
411,075	0,24
411,517	0,24
411,96	0,24
412,403	0,23
412,845	0,23
413,288	0,23
413,73	0,23
414,173	0,23
414,615	0,22
415,058	0,22
415,5	0,22
415,942	0,22
416,384	0,22
416,826	0,22
417,268	0,21
417,711	0,21
418,152	0,21
418,594	0,21
419,036	0,21
419,478	0,2
419,92	0,2
420,362	0,2
420,803	0,2
421,245	0,2
421,686	0,2
422,128	0,2
422,569	0,2
423,011	0,19
423,452	0,19
423,893	0,19
424,335	0,19
424,776	0,19
425,217	0,18
425,658	0,19
426,099	0,18
426,54	0,18
426,981	0,18
427,422	0,18
427,863	0,18
428,304	0,18
428,744	0,18
429,185	0,17
429,626	0,17
430,066	0,17
430,507	0,17
430,947	0,17
431,388	0,17
431,828	0,17
432,268	0,16
432,709	0,17
433,149	0,17
433,589	0,16
434,029	0,16
434,469	0,16
434,909	0,16
435,349	0,15
435,789	0,15
436,229	0,15
436,669	0,15
437,108	0,15
437,548	0,15
437,988	0,15
438,427	0,15
438,867	0,15
439,306	0,15
439,746	0,15
440,185	0,14
440,624	0,14
441,064	0,14
441,503	0,14
441,942	0,14
442,381	0,14
442,82	0,14
443,259	0,14
443,698	0,14
444,137	0,14
444,576	0,14
445,015	0,13
445,453	0,13
445,892	0,13
446,331	0,13
446,769	0,13
447,208	0,13
447,646	0,13
448,085	0,13
448,523	0,13
448,961	0,13
449,4	0,13
449,838	0,12
450,276	0,13
450,714	0,12
451,152	0,12
451,59	0,12
452,028	0,12
452,466	0,12
452,904	0,12
453,342	0,12
453,779	0,12
454,217	0,11
454,655	0,11
455,092	0,12
455,53	0,11
455,967	0,11
456,405	0,11
456,842	0,11
457,279	0,11
457,717	0,11
458,154	0,11
458,591	0,11
459,028	0,11
459,465	0,11
459,902	0,11
460,339	0,11
460,776	0,1
461,213	0,1
461,65	0,11
462,086	0,1
462,523	0,1
462,96	0,1
463,396	0,11
463,833	0,1
464,269	0,1
464,706	0,1
465,142	0,1
465,578	0,1
466,015	0,1
466,451	0,1
466,887	0,1
467,323	0,1
467,759	0,09
468,195	0,1
468,631	0,1
469,067	0,09
469,503	0,09
469,939	0,09
470,374	0,1
470,81	0,09
471,246	0,09
471,681	0,09
472,117	0,09
472,552	0,09
472,988	0,09
473,423	0,09
473,858	0,09
474,294	0,09
474,729	0,09
475,164	0,09
475,599	0,09
476,034	0,09
476,469	0,09
476,904	0,09
477,339	0,09
477,774	0,09
478,208	0,08
478,643	0,08
479,078	0,09
479,512	0,09
479,947	0,08
480,381	0,08
480,816	0,09
481,25	0,08
481,685	0,08
482,119	0,08
482,553	0,08
482,987	0,08
483,421	0,08
483,856	0,08
484,29	0,08
484,724	0,08
485,157	0,08
485,591	0,08
486,025	0,08
486,459	0,08
486,893	0,08
487,326	0,08
487,76	0,07
488,193	0,08
488,627	0,08
489,06	0,07
489,494	0,07
489,927	0,07
490,36	0,08
490,794	0,07
491,227	0,08
491,66	0,07
492,093	0,07
492,526	0,07
492,959	0,07
493,392	0,07
493,825	0,07
494,257	0,07
494,69	0,07
495,123	0,07
495,555	0,07
495,988	0,07
496,421	0,07
496,853	0,07
497,285	0,07
497,718	0,07
498,15	0,07
498,582	0,06
499,015	0,07
499,447	0,07
499,879	0,07
500,311	0,07
500,743	0,07
501,175	0,06
501,607	0,07
502,038	0,06
502,47	0,06
502,902	0,07
503,334	0,06
503,765	0,06
504,197	0,06
504,628	0,06
505,06	0,07
505,491	0,06
505,922	0,06
506,354	0,06
506,785	0,06
507,216	0,06
507,647	0,06
508,078	0,06
508,509	0,06
508,94	0,06
509,371	0,06
509,802	0,06
510,233	0,06
510,664	0,06
511,094	0,06
511,525	0,06
511,955	0,06
512,386	0,06
512,816	0,06
513,247	0,06
513,677	0,06
514,108	0,06
514,538	0,06
514,968	0,06
515,398	0,06
515,828	0,06
516,258	0,06
516,688	0,06
517,118	0,06
517,548	0,06
517,978	0,06
518,408	0,06
518,837	0,06
519,267	0,06
519,697	0,06
520,126	0,06
520,556	0,06
520,985	0,06
521,415	0,06
521,844	0,06
522,273	0,06
522,702	0,06
523,132	0,06
523,561	0,06
523,99	0,06
524,419	0,06
524,848	0,06
525,277	0,06
525,705	0,06
526,134	0,06
526,563	0,06
526,992	0,05
527,42	0,06
527,849	0,06
528,277	0,05
528,706	0,06
529,134	0,06
529,563	0,06
529,991	0,05
530,419	0,05
530,847	0,05
531,275	0,05
531,703	0,06
532,131	0,05
532,559	0,05
532,987	0,06
533,415	0,05
533,843	0,05
534,271	0,05
534,698	0,05
535,126	0,05
535,554	0,05
535,981	0,05
536,409	0,05
536,836	0,05
537,264	0,05
537,691	0,05
538,118	0,05
538,545	0,05
538,972	0,05
539,4	0,05
539,827	0,05
540,254	0,05
540,681	0,05
541,107	0,05
541,534	0,05
541,961	0,05
542,388	0,05
542,814	0,05
543,241	0,05
543,667	0,05
544,094	0,05
544,52	0,05
544,947	0,05
545,373	0,05
545,799	0,05
546,226	0,05
546,652	0,05
547,078	0,05
547,504	0,05
547,93	0,05
548,356	0,05
548,782	0,05
549,208	0,05
549,633	0,05
550,059	0,05
550,485	0,05
550,91	0,05
551,336	0,05
551,761	0,05
552,187	0,05
552,612	0,05
553,038	0,05
553,463	0,05
553,888	0,05
554,313	0,05
554,738	0,05
555,163	0,05
555,588	0,05
556,013	0,05
556,438	0,05
556,863	0,05
557,288	0,05
557,713	0,05
558,137	0,05
558,562	0,05
558,986	0,05
559,411	0,05
559,835	0,05
560,26	0,05
560,684	0,05
561,108	0,05
561,533	0,05
561,957	0,04
562,381	0,05
562,805	0,05
563,229	0,05
563,653	0,05
564,077	0,05
564,501	0,05
564,925	0,05
565,348	0,04
565,772	0,05
566,196	0,04
566,619	0,05
567,043	0,04
567,466	0,05
567,89	0,04
568,313	0,05
568,736	0,05
569,159	0,04
569,583	0,04
570,006	0,04
570,429	0,04
570,852	0,04
571,275	0,04
571,698	0,04
572,12	0,04
572,543	0,04
572,966	0,04
573,389	0,04
573,811	0,04
574,234	0,04
574,656	0,04
575,079	0,04
575,501	0,04
575,924	0,04
576,346	0,04
576,768	0,04
577,19	0,04
577,612	0,04
578,034	0,04
578,456	0,04
578,878	0,04
579,3	0,04
579,722	0,04
580,144	0,04
580,566	0,04
580,987	0,04
581,409	0,04
581,83	0,04
582,252	0,04
582,673	0,04
583,095	0,04
583,516	0,03
583,937	0,04
584,359	0,04
584,78	0,04
585,201	0,04
585,622	0,04
586,043	0,04
586,464	0,04
586,885	0,04
587,306	0,04
587,726	0,03
588,147	0,03
588,568	0,03
588,988	0,04
589,409	0,04
589,83	0,04
590,25	0,03
590,67	0,04
591,091	0,04
591,511	0,04
591,931	0,04
592,351	0,04
592,771	0,04
593,192	0,04
593,612	0,04
594,031	0,04
594,451	0,03
594,871	0,04
595,291	0,03
595,711	0,03
596,13	0,03
596,55	0,03
596,969	0,04
597,389	0,04
597,808	0,03
598,228	0,03
598,647	0,03
599,066	0,03
599,486	0,04
599,905	0,03
600,324	0,03
600,743	0,03
601,162	0,03
601,581	0,03
602	0,03
602,418	0,03
602,837	0,03
603,256	0,03
603,674	0,03
604,093	0,03
604,512	0,03
604,93	0,03
605,349	0,03
605,767	0,03
606,185	0,03
606,603	0,03
607,022	0,03
607,44	0,03
607,858	0,03
608,276	0,03
608,694	0,03
609,112	0,03
609,53	0,03
609,947	0,03
610,365	0,03
610,783	0,03
611,2	0,03
611,618	0,03
612,036	0,03
612,453	0,03
612,87	0,03
613,288	0,03
613,705	0,03
614,122	0,03
614,539	0,03
614,957	0,03
615,374	0,03
615,791	0,03
616,208	0,03
616,624	0,03
617,041	0,03
617,458	0,03
617,875	0,03
618,291	0,03
618,708	0,03
619,125	0,03
619,541	0,03
619,958	0,03
620,374	0,03
620,79	0,03
621,206	0,03
621,623	0,03
622,039	0,03
622,455	0,03
622,871	0,03
623,287	0,03
623,703	0,03
624,119	0,03
624,535	0,03
624,95	0,03
625,366	0,03
625,782	0,03
626,197	0,03
626,613	0,03
627,028	0,03
627,444	0,03
627,859	0,03
628,274	0,03
628,69	0,03
629,105	0,03
629,52	0,03
629,935	0,03
630,35	0,03
630,765	0,03
631,18	0,03
631,595	0,03
632,009	0,03
632,424	0,03
632,839	0,03
633,253	0,03
633,668	0,03
634,082	0,03
634,497	0,03
634,911	0,03
635,326	0,03
635,74	0,03
636,154	0,03
636,568	0,03
636,982	0,03
637,396	0,03
637,81	0,03
638,224	0,03
638,638	0,03
639,052	0,03
639,466	0,03
639,879	0,03
640,293	0,03
640,707	0,03
641,12	0,03
641,534	0,03
641,947	0,03
642,36	0,03
642,774	0,03
643,187	0,03
643,6	0,03
644,013	0,03
644,426	0,03
644,839	0,03
645,252	0,03
645,665	0,03
646,078	0,03
646,491	0,03
646,904	0,03
647,316	0,03
647,729	0,03
648,141	0,03
648,554	0,03
648,966	0,03
649,379	0,03
649,791	0,03
650,203	0,03
650,615	0,03
651,028	0,03
651,44	0,03
651,852	0,03
652,264	0,03
652,676	0,03
653,087	0,03
653,499	0,03
653,911	0,03
654,323	0,03
654,734	0,03
655,146	0,03
655,557	0,03
655,969	0,03
656,38	0,03
656,792	0,03
657,203	0,03
657,614	0,02
658,025	0,02
658,436	0,02
658,847	0,02
659,258	0,02
659,669	0,02
660,08	0,03
660,491	0,03
660,902	0,03
661,312	0,03
661,723	0,03
662,134	0,03
662,544	0,03
662,955	0,03
663,365	0,03
663,775	0,03
664,186	0,03
664,596	0,03
665,006	0,03
665,416	0,03
665,826	0,03
666,236	0,02
666,646	0,03
667,056	0,03
667,466	0,03
667,876	0,03
668,286	0,03
668,695	0,03
669,105	0,02
669,514	0,02
669,924	0,03
670,333	0,02
670,743	0,02
671,152	0,02
671,561	0,03
671,97	0,02
672,38	0,02
672,789	0,02
673,198	0,03
673,607	0,03
674,016	0,02
674,424	0,02
674,833	0,02
675,242	0,03
675,651	0,02
676,059	0,02
676,468	0,02
676,876	0,03
677,285	0,02
677,693	0,03
678,101	0,03
678,51	0,03
678,918	0,02
679,326	0,02
679,734	0,02
680,142	0,02
680,55	0,03
680,958	0,02
681,366	0,02
681,774	0,02
682,181	0,02
682,589	0,03
682,997	0,02
683,404	0,02
683,812	0,03
684,219	0,02
684,627	0,02
685,034	0,02
685,441	0,02
685,848	0,02
686,256	0,02
686,663	0,02
687,07	0,02
687,477	0,02
687,884	0,02
688,29	0,02
688,697	0,02
689,104	0,02
689,511	0,02
689,917	0,02
690,324	0,02
690,73	0,02
691,137	0,02
691,543	0,02
691,95	0,02
692,356	0,02
692,762	0,02
693,168	0,02
693,574	0,02
693,98	0,02
694,386	0,02
694,792	0,02
695,198	0,02
695,604	0,02
696,01	0,02
696,415	0,02
696,821	0,02
697,227	0,02
697,632	0,02
698,038	0,02
698,443	0,02
698,848	0,02
699,254	0,02
699,659	0,02
700,064	0,02
700,469	0,02
700,874	0,02
701,279	0,02
701,684	0,02
702,089	0,02
702,494	0,02
702,898	0,02
703,303	0,02
703,708	0,02
704,112	0,02
704,517	0,02
704,921	0,02
705,326	0,02
705,73	0,02
706,134	0,02
706,538	0,02
706,943	0,02
707,347	0,02
707,751	0,02
708,155	0,02
708,559	0,02
708,963	0,02
709,366	0,02
709,77	0,02
710,174	0,02
710,577	0,02
710,981	0,02
711,384	0,02
711,788	0,02
712,191	0,02
712,595	0,02
712,998	0,02
713,401	0,02
713,804	0,02
714,207	0,02
714,61	0,02
715,013	0,02
715,416	0,02
715,819	0,02
716,222	0,02
716,625	0,02
717,027	0,02
717,43	0,02
717,833	0,02
718,235	0,02
718,638	0,02
719,04	0,02
719,442	0,02
719,844	0,02
720,247	0,02
720,649	0,02
721,051	0,02
721,453	0,02
721,855	0,02
722,257	0,02
722,659	0,02
723,06	0,02
723,462	0,02
723,864	0,02
724,265	0,02
724,667	0,02
725,069	0,02
725,47	0,02
725,871	0,01
726,273	0,02
726,674	0,02
727,075	0,02
727,476	0,02
727,877	0,02
728,278	0,02
728,679	0,02
729,08	0,02
729,481	0,02
729,882	0,02
730,282	0,02
730,683	0,02
731,084	0,02
731,484	0,02
731,885	0,02
732,285	0,01
732,686	0,01
733,086	0,02
733,486	0,02
733,886	0,02
734,286	0,02
734,686	0,02
735,086	0,01
735,486	0,02
735,886	0,02
736,286	0,01
736,686	0,02
737,086	0,01
737,485	0,02
737,885	0,02
738,284	0,02
738,684	0,02
739,083	0,02
739,482	0,01
739,882	0,02
740,281	0,01
740,68	0,02
741,079	0,02
741,478	0,01
741,877	0,02
742,276	0,01
742,675	0,02
743,074	0,02
743,473	0,02
743,871	0,02
744,27	0,01
744,668	0,02
745,067	0,02
745,465	0,02
745,864	0,02
746,262	0,01
746,66	0,01
747,059	0,01
747,457	0,02
747,855	0,01
748,253	0,02
748,651	0,02
749,049	0,02
749,447	0,02
749,844	0,02
750,242	0,01
750,64	0,02
751,037	0,02
751,435	0,02
751,832	0,01
752,23	0,01
752,627	0,02
753,024	0,02
753,422	0,02
753,819	0,01
754,216	0,01
754,613	0,01
755,01	0,02
755,407	0,02
755,804	0,02
756,201	0,02
756,597	0,01
756,994	0,01
757,391	0,01
757,787	0,01
758,184	0,02
758,58	0,01
758,977	0,02
759,373	0,01
759,769	0,02
760,166	0,02
760,562	0,02
760,958	0,01
761,354	0,01
761,75	0,01
762,146	0,02
762,542	0,01
762,937	0,02
763,333	0,01
763,729	0,01
764,124	0,01
764,52	0,02
764,915	0,01
765,311	0,01
765,706	0,02
766,101	0,01
766,497	0,01
766,892	0,01
767,287	0,01
767,682	0,02
768,077	0,01
768,472	0,01
768,867	0,02
769,262	0,02
769,657	0,01
770,051	0,02
770,446	0,01
770,84	0,01
771,235	0,01
771,629	0,01
772,024	0,01
772,418	0,02
772,812	0,01
773,207	0,01
773,601	0,02
773,995	0,01
774,389	0,01
774,783	0,01
775,177	0,01
775,571	0,01
775,964	0,02
776,358	0,01
776,752	0,02
777,145	0,01
777,539	0,01
777,932	0,01
778,326	0,01
778,719	0,01
779,113	0,01
779,506	0,02
779,899	0,02
780,292	0,01
780,685	0,02
781,078	0,01
781,471	0,01
781,864	0,01
782,257	0,02
782,65	0,01
783,042	0,02
783,435	0,02
783,827	0,01
784,22	0,02
784,612	0,01
785,005	0,02
785,397	0,02
785,789	0,02
786,182	0,01
786,574	0,01
786,966	0,01
787,358	0,01
787,75	0,02
788,142	0,01
788,534	0,01
788,925	0,01
789,317	0,01
789,709	0,02
790,1	0,01
790,492	0,01
790,883	0,01
791,275	0,01
791,666	0,01
792,057	0,01
792,449	0,01
792,84	0,01
793,231	0,01
793,622	0,01
794,013	0,02
794,404	0,01
794,795	0,01
795,185	0,02
795,576	0,02
795,967	0,02
796,357	0,02
796,748	0,01
797,138	0,01
797,529	0,02
797,919	0,02
798,31	0,02
798,7	0,02
799,09	0,01
799,48	0,01
799,87	0,01
800,26	0,01
800,65	0,01
801,04	0,02
801,43	0,01
801,82	0,02
802,209	0,01
802,599	0,02
802,988	0,01
803,378	0,01
803,767	0,02
804,157	0,02
804,546	0,01
804,935	0,02
805,325	0,01
805,714	0,02
806,103	0,02
806,492	0,02
806,881	0,02
807,27	0,02
807,658	0,02
808,047	0,02
808,436	0,02
808,824	0,01
809,213	0,01
809,602	0,02
809,99	0,02
810,378	0,02
810,767	0,02
811,155	0,02
811,543	0,02
811,931	0,02
812,319	0,01
812,708	0,01
813,095	0,02
813,483	0,02
813,871	0,02
814,259	0,01
814,647	0,02
815,034	0,01
815,422	0,02
815,809	0,01
816,197	0,02
816,584	0,02
816,972	0,02
817,359	0,02
817,746	0,02
818,133	0,01
818,52	0,01
818,907	0,02
819,294	0,02
819,681	0,02
820,068	0,02
820,455	0,01
820,842	0,02
821,228	0,02
821,615	0,02
822,002	0,02
822,388	0,01
822,774	0,02
823,161	0,01
823,547	0,02
823,933	0,02
824,319	0,01
824,706	0,02
825,092	0,01
825,478	0,02
825,863	0,01
826,249	0,02
826,635	0,01
827,021	0,02
827,407	0,01
827,792	0,01
828,178	0,02
828,563	0,01
828,949	0,02
829,334	0,01
829,719	0,01
830,104	0,01
830,49	0,01
830,875	0,01
831,26	0,01
831,645	0,02
832,03	0,01
832,415	0,01
832,799	0,01
833,184	0,02
833,569	0,02
833,953	0,01
834,338	0,01
834,722	0,01
835,107	0,01
835,491	0,01
835,875	0,01
836,26	0,01
836,644	0,01
837,028	0,02
837,412	0,01
837,796	0,01
838,18	0,01
838,564	0,01
838,948	0,01
839,331	0,01
839,715	0,01
840,099	0,01
840,482	0,01
840,866	0,01
841,249	0,01
841,632	0,01
842,016	0,01
842,399	0,01
842,782	0,01
843,165	0,01
843,548	0,01
843,931	0,01
844,314	0,01
844,697	0,01
845,08	0,01
845,463	0,01
845,845	0,01
846,228	0,01
846,61	0,01
846,993	0,01
847,375	0,01
847,758	0,01
848,14	0,01
848,522	0,01
848,904	0,01
849,286	0,01
849,668	0,01
850,05	0,01
850,432	0,01
850,814	0,01
851,196	0,01
851,578	0,01
851,959	0,01
852,341	0,01
852,722	0,01
853,104	0,01
853,485	0,01
853,867	0,01
854,248	0,01
854,629	0,01
855,01	0,01
855,391	0,01
855,773	0,01
856,153	0,01
856,534	0,01
856,915	0,01
857,296	0,01
857,677	0,01
858,057	0,01
858,438	0,01
858,819	0,01
859,199	0,01
859,579	0,01
859,96	0,01
860,34	0,01
860,72	0,01
861,1	0,01
861,48	0,01
861,86	0,01
862,24	0,01
862,62	0,01
863	0,01
863,38	0,01
863,76	0,01
864,139	0,01
864,519	0,01
864,898	0,01
865,278	0,01
865,657	0,01
866,037	0,01
866,416	0,01
866,795	0,01
867,174	0,01
867,553	0,01
867,932	0,01
868,311	0,01
868,69	0,01
869,069	0,01
869,448	0,01
869,826	0,01
870,205	0,01
870,584	0
870,962	0,01
871,341	0,01
871,719	0,01
872,097	0,01
872,475	0,01
872,854	0,01
873,232	0,01
873,61	0,01
873,988	0,01
874,366	0,01
874,744	0,01
875,121	0,01
875,499	0,01
875,877	0,01
876,255	0,01
876,632	0,01
877,01	0,01
877,387	0,01
877,764	0,01
878,142	0,01
878,519	0,01
878,896	0,01
879,273	0
879,65	0,01
880,027	0,01
880,404	0,01
880,781	0
881,158	0,01
881,534	0,01
881,911	0,01
882,288	0,01
882,664	0,01
883,041	0,01
883,417	0,01
883,793	0,01
884,17	0,01
884,546	0,01
884,922	0,01
885,298	0,01
885,674	0,01
886,05	0,01
886,426	0,01
886,802	0,01
887,178	0,01
887,553	0,01
887,929	0,01
888,305	0,01
888,68	0,01
889,056	0,01
889,431	0,01
889,806	0,01
890,182	0,01
890,557	0,01
890,932	0,01
891,307	0,01
891,682	0,01
892,057	0,01
892,432	0,01
892,807	0,01
893,181	0,01
893,556	0,01
893,931	0,01
894,305	0,01
894,68	0,01
895,054	0,01
895,428	0,01
895,803	0,01
896,177	0,01
896,551	0,01
896,925	0,01
897,299	0,01
897,673	0,01
898,047	0,01
898,421	0,01
898,795	0,01
899,169	0,01
899,542	0,01
899,916	0,01
900,289	0,01
900,663	0,01
901,036	0,01
901,41	0,01
901,783	0,01
902,156	0,01
902,529	0,01
902,902	0,01
903,275	0,01
903,648	0,01
904,021	0,01
904,394	0,01
904,767	0,01
905,139	0,02
905,512	0,02
905,885	0,02
906,257	0,01
906,629	0,01
907,002	0,02
907,374	0,02
907,746	0,02
908,119	0,02
908,491	0,01
908,863	0,02
909,235	0,01
909,607	0,02
909,978	0,01
910,35	0,02
910,722	0,02
911,094	0,02
911,465	0,01
911,837	0,01
912,208	0,01
912,58	0,01
912,951	0,01
913,322	0,01
913,693	0,01
914,065	0,01
914,436	0,01
914,807	0,01
915,178	0,01
915,548	0,01
915,919	0,01
916,29	0,01
916,661	0,02
917,031	0,01
917,402	0,01
917,772	0,01
918,143	0,01
918,513	0,01
918,884	0,01
919,254	0,01
919,624	0,01
919,994	0,01
920,364	0,01
920,734	0,01
921,104	0,01
921,474	0,01
921,844	0,01
922,213	0,01
922,583	0,01
922,953	0,02
923,322	0,01
923,692	0,01
924,061	0,01
924,43	0,01
924,8	0,01
925,169	0,01
925,538	0,01
925,907	0,01
926,276	0,01
926,645	0,01
927,014	0,01
927,383	0,01
927,751	0,01
928,12	0,01
928,489	0,01
928,857	0,01
929,226	0,01
929,594	0,01
929,962	0,01
930,331	0,01
930,699	0,01
931,067	0,02
931,435	0,01
931,803	0,01
932,171	0,01
932,539	0,01
932,907	0,01
933,275	0,01
933,642	0,01
934,01	0
934,378	0,01
934,745	0,01
935,113	0,01
935,48	0
935,847	0,01
936,215	0,01
936,582	0,01
936,949	0,01
937,316	0,01
937,683	0,01
938,05	0,01
938,417	0
938,783	0,01
939,15	0,02
939,517	0,01
939,883	0,01
940,25	0,02
940,616	0,01
940,983	0
941,349	0,01
941,715	0,01
942,082	0,01
942,448	0,01
942,814	0,01
943,18	0,01
943,546	0,01
943,912	0
944,277	0,01
944,643	0,02
945,009	0,02
945,374	0,01
945,74	0,01
946,105	0,01
946,471	0,02
946,836	0,02
947,202	0,01
947,567	0,01
947,932	0
948,297	0
948,662	0,02
949,027	0,01
949,392	0
949,757	0,01
950,121	0
950,486	0
950,851	-0,01
951,215	0,01
951,58	0,01
951,944	0,01
952,309	0,01
952,673	0,01
953,037	0,01
953,401	0,01
953,765	0,01
954,129	-0
954,493	0,01
954,857	0
955,221	0,01
955,585	0,01
955,949	0,02
956,312	-0
956,676	-0
957,039	0
957,403	0
957,766	-0,01
958,13	0
958,493	0,01
958,856	0
959,219	-0
959,582	0,01
959,945	-0
960,308	-0,01
960,671	0,01
961,034	-0,01
961,396	0
961,759	-0
962,122	0
962,484	0,01
962,847	0
963,209	-0
963,571	-0
963,934	0,01
964,296	-0,01
964,658	-0
965,02	0,01
965,382	0,01
965,744	-0,01
966,106	0
966,468	0,02
966,829	-0
967,191	0,01
967,553	-0
967,914	0,02
968,276	-0,01
968,637	-0,01
968,998	0
969,36	0,01
969,721	0,02
970,082	0
970,443	0
970,804	-0,01
971,165	-0
971,526	-0,01
971,887	0,02
972,247	-0,02
972,608	-0
972,969	-0,01
973,329	0,01
973,69	0,02
974,05	0,02
974,41	0,01
974,771	0,01
975,131	0
975,491	0,02
975,851	0,02
976,211	0
976,571	0,01
976,931	0,03
977,291	0,01
977,65	-0,01
978,01	-0
978,37	0,02
978,729	-0
979,089	0
979,448	-0
979,807	-0,01
980,167	0
980,526	0,01
980,885	-0,01
981,244	0,01
981,603	0,01
981,962	0,05
982,321	-0
982,68	0,02
983,038	0,01
983,397	0,01
983,756	0,01
984,114	0,01
984,473	0
984,831	-0,01
985,19	0,03
985,548	0,04
985,906	0
986,264	0,01
986,622	0,03
986,98	0,02
987,338	-0,01
987,696	0,01
988,054	-0,02
988,412	0,01
988,769	0,01
989,127	0
989,484	-0
989,842	0,02
990,199	0,01
990,557	0,03
990,914	-0,01
991,271	-0,01
991,628	0,01
991,985	0,02
992,342	-0
992,699	0,03
993,056	0,03
993,413	-0,01
993,77	0
994,126	-0,01
994,483	-0
994,84	-0,01
995,196	0,01
995,552	0,03
995,909	-0,01
996,265	0
996,621	0,02
996,977	0
997,333	0,01
997,689	-0
998,045	0,02
998,401	0,02
998,757	0,03
999,113	0,04
999,468	0,01
999,824	0,02
1000,18	-0,01
1000,535	0,01
1000,89	0,01
1001,246	0,03
1001,601	0,01
1001,956	0,03
1002,311	0,03
1002,666	0,03
1003,021	0,02
1003,376	-0,01
1003,731	0,05
1004,086	-0
1004,441	-0,03
1004,795	0,02
1005,15	0,08
1005,505	0
1005,859	0,03
1006,213	0,04
1006,568	-0,02
1006,922	-0,03
1007,276	-0,02
1007,63	0,02
1007,984	0,03
1008,338	0,01
1008,692	-0,03
1009,046	0,02
1009,4	-0,01
1009,754	0,01
1010,107	-0,02
1010,461	-0,06
1010,814	0,02
1011,168	-0,02
1011,521	0,01
1011,874	0,01
1012,228	0,04
1012,581	0,03
1012,934	0,03
1013,287	0,04
1013,64	0,01
1013,993	0,01
1014,346	0,02
1014,699	0,03
1015,051	-0,02
1015,404	0,02
1015,756	0,03
1016,109	0,08
1016,461	0,01
1016,814	0,01
1017,166	0,01
1017,518	-0,04
1017,87	0,01
1018,223	0,01
1018,575	0,06
1018,927	0,03
1019,278	0,04
1019,63	0,01
1019,982	0,05
1020,334	0
1020,685	0,05
1021,037	0,01
1021,388	-0,02
1021,74	0,04
1022,091	0,02
1022,442	0,02
1022,794	0,05
1023,145	-0,03
1023,496	-0
1023,847	-0,01
1024,198	0,03
1024,549	-0
1024,9	0,01
1025,25	0,04
1025,601	-0,02
1025,952	-0,05
1026,302	0,02
1026,653	0,04
1027,003	0,02
1027,353	0,01
1027,704	0,01
1028,054	0,01
1028,404	0,06
1028,754	-0,01
1029,104	0,04
1029,454	0,02
1029,804	-0,05
1030,154	0,01
1030,503	0,01
1030,853	0,01
