Data from Absorbance__55__15-34-10-912.txt Node

Date: Wed May 05 15:34:10 CEST 2021
User: thoma
Spectrometer: FLMS06037
Trigger mode: 0
Integration Time (sec): 1,451500E-1
Scans to average: 10
Electric dark correction enabled: true
Nonlinearity correction enabled: false
Boxcar width: 0
XAxis mode: Wavelengths
Number of Pixels in Spectrum: 2048
>>>>>Begin Spectral Data<<<<<
187,642	-0,69
188,109	-0,69
188,576	-0,69
189,043	-0
189,51	-0
189,976	0,09
190,443	-0,62
190,91	0,68
191,376	-0
191,843	0,07
192,309	0,29
192,776	-0,09
193,242	-0,05
193,708	-0,03
194,175	1,83
194,641	-0,11
195,107	-0
195,573	-0
196,039	-0,1
196,505	-0,69
196,971	-0
197,437	-0
197,903	-0,19
198,369	0,1
198,835	0,09
199,301	0,11
199,766	0,1
200,232	0,1
200,698	0,1
201,163	0,11
201,629	0,12
202,094	0,11
202,56	0,11
203,025	0,11
203,49	0,13
203,956	0,11
204,421	0,13
204,886	0,14
205,351	0,12
205,816	0,12
206,281	0,13
206,746	0,13
207,211	0,15
207,676	0,13
208,141	0,14
208,606	0,15
209,071	0,16
209,536	0,16
210	0,19
210,465	0,17
210,929	0,2
211,394	0,23
211,859	0,22
212,323	0,24
212,787	0,3
213,252	0,3
213,716	0,33
214,18	0,36
214,645	0,39
215,109	0,45
215,573	0,47
216,037	0,53
216,501	0,57
216,965	0,61
217,429	0,69
217,893	0,7
218,357	0,8
218,82	0,85
219,284	0,87
219,748	0,94
220,211	0,99
220,675	1,04
221,139	1,08
221,602	1,13
222,066	1,16
222,529	1,19
222,992	1,25
223,456	1,28
223,919	1,33
224,382	1,36
224,845	1,36
225,308	1,4
225,772	1,41
226,235	1,45
226,698	1,44
227,16	1,45
227,623	1,47
228,086	1,48
228,549	1,49
229,012	1,5
229,474	1,52
229,937	1,53
230,4	1,51
230,862	1,54
231,325	1,53
231,787	1,53
232,25	1,53
232,712	1,55
233,174	1,54
233,637	1,53
234,099	1,52
234,561	1,53
235,023	1,52
235,485	1,54
235,947	1,53
236,409	1,53
236,871	1,54
237,333	1,56
237,795	1,53
238,257	1,52
238,718	1,54
239,18	1,53
239,642	1,53
240,103	1,53
240,565	1,52
241,026	1,53
241,488	1,51
241,949	1,52
242,411	1,52
242,872	1,52
243,333	1,51
243,795	1,51
244,256	1,51
244,717	1,49
245,178	1,5
245,639	1,51
246,1	1,49
246,561	1,52
247,022	1,52
247,483	1,54
247,943	1,55
248,404	1,56
248,865	1,54
249,325	1,54
249,786	1,54
250,247	1,55
250,707	1,56
251,168	1,57
251,628	1,56
252,088	1,57
252,549	1,58
253,009	1,56
253,469	1,58
253,929	1,56
254,389	1,58
254,849	1,58
255,309	1,58
255,769	1,59
256,229	1,6
256,689	1,6
257,149	1,61
257,609	1,63
258,069	1,61
258,528	1,63
258,988	1,64
259,448	1,61
259,907	1,63
260,367	1,64
260,826	1,63
261,285	1,62
261,745	1,65
262,204	1,63
262,663	1,63
263,122	1,63
263,582	1,64
264,041	1,66
264,5	1,64
264,959	1,65
265,418	1,66
265,877	1,64
266,336	1,63
266,794	1,64
267,253	1,65
267,712	1,65
268,171	1,63
268,629	1,64
269,088	1,65
269,546	1,65
270,005	1,65
270,463	1,65
270,922	1,65
271,38	1,64
271,838	1,65
272,296	1,63
272,755	1,65
273,213	1,64
273,671	1,64
274,129	1,64
274,587	1,65
275,045	1,64
275,503	1,63
275,961	1,63
276,418	1,64
276,876	1,64
277,334	1,64
277,791	1,64
278,249	1,64
278,707	1,64
279,164	1,64
279,622	1,62
280,079	1,62
280,536	1,66
280,994	1,65
281,451	1,63
281,908	1,62
282,365	1,63
282,822	1,64
283,28	1,62
283,737	1,64
284,193	1,64
284,65	1,63
285,107	1,62
285,564	1,63
286,021	1,63
286,478	1,64
286,934	1,6
287,391	1,62
287,848	1,62
288,304	1,63
288,761	1,61
289,217	1,6
289,673	1,61
290,13	1,62
290,586	1,6
291,042	1,61
291,498	1,61
291,955	1,58
292,411	1,58
292,867	1,59
293,323	1,59
293,779	1,58
294,235	1,56
294,69	1,58
295,146	1,58
295,602	1,56
296,058	1,56
296,513	1,56
296,969	1,55
297,424	1,54
297,88	1,54
298,335	1,52
298,791	1,52
299,246	1,51
299,701	1,52
300,157	1,52
300,612	1,5
301,067	1,5
301,522	1,5
301,977	1,5
302,432	1,49
302,887	1,51
303,342	1,49
303,797	1,48
304,252	1,47
304,707	1,47
305,161	1,47
305,616	1,47
306,071	1,46
306,525	1,46
306,98	1,46
307,434	1,46
307,889	1,43
308,343	1,45
308,797	1,41
309,252	1,42
309,706	1,43
310,16	1,41
310,614	1,42
311,068	1,4
311,522	1,4
311,976	1,39
312,43	1,4
312,884	1,38
313,338	1,38
313,792	1,38
314,245	1,36
314,699	1,36
315,153	1,34
315,606	1,35
316,06	1,34
316,513	1,33
316,967	1,32
317,42	1,32
317,873	1,33
318,327	1,31
318,78	1,31
319,233	1,31
319,686	1,29
320,139	1,29
320,592	1,29
321,045	1,29
321,498	1,27
321,951	1,27
322,404	1,26
322,857	1,27
323,31	1,25
323,762	1,24
324,215	1,23
324,667	1,23
325,12	1,21
325,573	1,19
326,025	1,2
326,477	1,19
326,93	1,2
327,382	1,2
327,834	1,22
328,286	1,22
328,739	1,22
329,191	1,19
329,643	1,2
330,095	1,19
330,547	1,17
330,999	1,17
331,45	1,16
331,902	1,15
332,354	1,15
332,806	1,13
333,257	1,13
333,709	1,13
334,16	1,11
334,612	1,11
335,063	1,11
335,515	1,11
335,966	1,11
336,417	1,11
336,869	1,1
337,32	1,1
337,771	1,09
338,222	1,07
338,673	1,06
339,124	1,04
339,575	1,04
340,026	1,04
340,477	1,03
340,928	1,03
341,378	1,03
341,829	1,02
342,28	1,02
342,73	1,02
343,181	1,02
343,631	1
344,082	1
344,532	0,99
344,982	0,99
345,433	0,99
345,883	0,98
346,333	0,98
346,783	0,98
347,233	0,98
347,683	0,97
348,133	0,97
348,583	0,97
349,033	0,97
349,483	0,97
349,933	0,96
350,383	0,96
350,832	0,95
351,282	0,95
351,732	0,95
352,181	0,94
352,631	0,93
353,08	0,93
353,529	0,93
353,979	0,93
354,428	0,92
354,877	0,92
355,327	0,91
355,776	0,91
356,225	0,9
356,674	0,9
357,123	0,89
357,572	0,9
358,021	0,89
358,469	0,88
358,918	0,89
359,367	0,87
359,816	0,88
360,264	0,87
360,713	0,87
361,161	0,86
361,61	0,86
362,058	0,85
362,507	0,85
362,955	0,85
363,403	0,84
363,852	0,84
364,3	0,83
364,748	0,83
365,196	0,82
365,644	0,83
366,092	0,82
366,54	0,81
366,988	0,81
367,436	0,81
367,883	0,81
368,331	0,79
368,779	0,79
369,226	0,78
369,674	0,78
370,121	0,78
370,569	0,77
371,016	0,77
371,464	0,75
371,911	0,76
372,358	0,75
372,805	0,75
373,253	0,74
373,7	0,74
374,147	0,73
374,594	0,73
375,041	0,72
375,488	0,72
375,935	0,7
376,381	0,7
376,828	0,7
377,275	0,68
377,721	0,68
378,168	0,68
378,615	0,67
379,061	0,66
379,508	0,65
379,954	0,64
380,4	0,64
380,847	0,63
381,293	0,62
381,739	0,62
382,185	0,6
382,631	0,59
383,077	0,59
383,523	0,58
383,969	0,57
384,415	0,56
384,861	0,56
385,307	0,55
385,752	0,54
386,198	0,53
386,644	0,52
387,089	0,52
387,535	0,51
387,98	0,5
388,426	0,49
388,871	0,5
389,317	0,49
389,762	0,47
390,207	0,47
390,652	0,46
391,097	0,46
391,542	0,45
391,987	0,45
392,432	0,44
392,877	0,44
393,322	0,43
393,767	0,43
394,212	0,42
394,656	0,41
395,101	0,41
395,546	0,4
395,99	0,4
396,435	0,39
396,879	0,39
397,324	0,39
397,768	0,39
398,212	0,38
398,657	0,37
399,101	0,38
399,545	0,37
399,989	0,36
400,433	0,36
400,877	0,36
401,321	0,35
401,765	0,34
402,209	0,35
402,653	0,34
403,096	0,34
403,54	0,33
403,984	0,33
404,427	0,33
404,871	0,32
405,314	0,32
405,758	0,32
406,201	0,32
406,644	0,31
407,088	0,31
407,531	0,31
407,974	0,31
408,417	0,3
408,86	0,3
409,303	0,3
409,746	0,29
410,189	0,3
410,632	0,29
411,075	0,29
411,517	0,29
411,96	0,29
412,403	0,28
412,845	0,28
413,288	0,28
413,73	0,28
414,173	0,27
414,615	0,27
415,058	0,27
415,5	0,26
415,942	0,26
416,384	0,26
416,826	0,26
417,268	0,26
417,711	0,26
418,152	0,25
418,594	0,26
419,036	0,25
419,478	0,25
419,92	0,24
420,362	0,24
420,803	0,24
421,245	0,24
421,686	0,24
422,128	0,24
422,569	0,24
423,011	0,23
423,452	0,23
423,893	0,23
424,335	0,23
424,776	0,23
425,217	0,23
425,658	0,22
426,099	0,22
426,54	0,22
426,981	0,22
427,422	0,22
427,863	0,21
428,304	0,21
428,744	0,21
429,185	0,21
429,626	0,21
430,066	0,21
430,507	0,2
430,947	0,2
431,388	0,2
431,828	0,2
432,268	0,2
432,709	0,2
433,149	0,2
433,589	0,2
434,029	0,19
434,469	0,19
434,909	0,19
435,349	0,19
435,789	0,19
436,229	0,19
436,669	0,18
437,108	0,19
437,548	0,19
437,988	0,19
438,427	0,18
438,867	0,18
439,306	0,18
439,746	0,18
440,185	0,18
440,624	0,17
441,064	0,17
441,503	0,17
441,942	0,17
442,381	0,17
442,82	0,17
443,259	0,17
443,698	0,16
444,137	0,17
444,576	0,16
445,015	0,17
445,453	0,16
445,892	0,16
446,331	0,16
446,769	0,16
447,208	0,16
447,646	0,16
448,085	0,15
448,523	0,15
448,961	0,15
449,4	0,15
449,838	0,15
450,276	0,15
450,714	0,15
451,152	0,15
451,59	0,15
452,028	0,14
452,466	0,14
452,904	0,15
453,342	0,14
453,779	0,14
454,217	0,14
454,655	0,14
455,092	0,14
455,53	0,14
455,967	0,13
456,405	0,13
456,842	0,13
457,279	0,14
457,717	0,13
458,154	0,13
458,591	0,13
459,028	0,13
459,465	0,13
459,902	0,13
460,339	0,13
460,776	0,13
461,213	0,12
461,65	0,13
462,086	0,13
462,523	0,13
462,96	0,12
463,396	0,13
463,833	0,12
464,269	0,12
464,706	0,12
465,142	0,12
465,578	0,12
466,015	0,12
466,451	0,12
466,887	0,12
467,323	0,12
467,759	0,12
468,195	0,11
468,631	0,12
469,067	0,11
469,503	0,11
469,939	0,11
470,374	0,12
470,81	0,11
471,246	0,11
471,681	0,11
472,117	0,11
472,552	0,11
472,988	0,1
473,423	0,11
473,858	0,11
474,294	0,11
474,729	0,11
475,164	0,11
475,599	0,11
476,034	0,11
476,469	0,1
476,904	0,1
477,339	0,11
477,774	0,1
478,208	0,1
478,643	0,1
479,078	0,1
479,512	0,11
479,947	0,1
480,381	0,1
480,816	0,11
481,25	0,1
481,685	0,1
482,119	0,1
482,553	0,1
482,987	0,1
483,421	0,1
483,856	0,1
484,29	0,1
484,724	0,1
485,157	0,09
485,591	0,09
486,025	0,09
486,459	0,1
486,893	0,1
487,326	0,09
487,76	0,09
488,193	0,09
488,627	0,09
489,06	0,09
489,494	0,09
489,927	0,09
490,36	0,09
490,794	0,09
491,227	0,09
491,66	0,09
492,093	0,09
492,526	0,09
492,959	0,09
493,392	0,09
493,825	0,09
494,257	0,08
494,69	0,09
495,123	0,08
495,555	0,09
495,988	0,09
496,421	0,09
496,853	0,09
497,285	0,08
497,718	0,08
498,15	0,08
498,582	0,08
499,015	0,08
499,447	0,08
499,879	0,08
500,311	0,08
500,743	0,08
501,175	0,08
501,607	0,08
502,038	0,08
502,47	0,08
502,902	0,08
503,334	0,08
503,765	0,08
504,197	0,08
504,628	0,08
505,06	0,08
505,491	0,08
505,922	0,07
506,354	0,08
506,785	0,08
507,216	0,08
507,647	0,08
508,078	0,07
508,509	0,08
508,94	0,08
509,371	0,08
509,802	0,08
510,233	0,08
510,664	0,07
511,094	0,08
511,525	0,08
511,955	0,07
512,386	0,07
512,816	0,07
513,247	0,07
513,677	0,07
514,108	0,07
514,538	0,07
514,968	0,07
515,398	0,07
515,828	0,07
516,258	0,07
516,688	0,07
517,118	0,07
517,548	0,07
517,978	0,07
518,408	0,07
518,837	0,07
519,267	0,07
519,697	0,07
520,126	0,07
520,556	0,07
520,985	0,07
521,415	0,07
521,844	0,07
522,273	0,07
522,702	0,07
523,132	0,07
523,561	0,07
523,99	0,07
524,419	0,07
524,848	0,07
525,277	0,07
525,705	0,07
526,134	0,07
526,563	0,07
526,992	0,07
527,42	0,07
527,849	0,07
528,277	0,07
528,706	0,07
529,134	0,07
529,563	0,07
529,991	0,06
530,419	0,07
530,847	0,07
531,275	0,07
531,703	0,07
532,131	0,07
532,559	0,06
532,987	0,07
533,415	0,07
533,843	0,06
534,271	0,06
534,698	0,06
535,126	0,06
535,554	0,06
535,981	0,06
536,409	0,06
536,836	0,06
537,264	0,06
537,691	0,06
538,118	0,06
538,545	0,06
538,972	0,06
539,4	0,06
539,827	0,06
540,254	0,06
540,681	0,06
541,107	0,06
541,534	0,07
541,961	0,06
542,388	0,06
542,814	0,06
543,241	0,06
543,667	0,06
544,094	0,06
544,52	0,06
544,947	0,06
545,373	0,06
545,799	0,06
546,226	0,06
546,652	0,06
547,078	0,06
547,504	0,06
547,93	0,06
548,356	0,06
548,782	0,06
549,208	0,06
549,633	0,06
550,059	0,06
550,485	0,06
550,91	0,06
551,336	0,06
551,761	0,06
552,187	0,06
552,612	0,06
553,038	0,06
553,463	0,06
553,888	0,06
554,313	0,06
554,738	0,06
555,163	0,06
555,588	0,06
556,013	0,06
556,438	0,06
556,863	0,06
557,288	0,06
557,713	0,06
558,137	0,06
558,562	0,06
558,986	0,06
559,411	0,06
559,835	0,06
560,26	0,06
560,684	0,06
561,108	0,06
561,533	0,06
561,957	0,06
562,381	0,06
562,805	0,05
563,229	0,06
563,653	0,05
564,077	0,06
564,501	0,06
564,925	0,06
565,348	0,05
565,772	0,06
566,196	0,05
566,619	0,05
567,043	0,05
567,466	0,06
567,89	0,05
568,313	0,05
568,736	0,05
569,159	0,05
569,583	0,05
570,006	0,05
570,429	0,05
570,852	0,05
571,275	0,05
571,698	0,05
572,12	0,05
572,543	0,05
572,966	0,05
573,389	0,05
573,811	0,05
574,234	0,05
574,656	0,05
575,079	0,05
575,501	0,05
575,924	0,05
576,346	0,05
576,768	0,05
577,19	0,05
577,612	0,05
578,034	0,05
578,456	0,05
578,878	0,05
579,3	0,05
579,722	0,05
580,144	0,04
580,566	0,04
580,987	0,05
581,409	0,05
581,83	0,05
582,252	0,05
582,673	0,05
583,095	0,04
583,516	0,04
583,937	0,04
584,359	0,04
584,78	0,05
585,201	0,05
585,622	0,05
586,043	0,05
586,464	0,05
586,885	0,05
587,306	0,04
587,726	0,04
588,147	0,04
588,568	0,04
588,988	0,04
589,409	0,05
589,83	0,05
590,25	0,04
590,67	0,05
591,091	0,05
591,511	0,05
591,931	0,05
592,351	0,05
592,771	0,05
593,192	0,04
593,612	0,05
594,031	0,04
594,451	0,04
594,871	0,04
595,291	0,04
595,711	0,04
596,13	0,04
596,55	0,04
596,969	0,05
597,389	0,05
597,808	0,04
598,228	0,04
598,647	0,04
599,066	0,04
599,486	0,04
599,905	0,04
600,324	0,04
600,743	0,04
601,162	0,04
601,581	0,04
602	0,04
602,418	0,04
602,837	0,04
603,256	0,04
603,674	0,04
604,093	0,04
604,512	0,04
604,93	0,04
605,349	0,04
605,767	0,04
606,185	0,04
606,603	0,04
607,022	0,04
607,44	0,04
607,858	0,04
608,276	0,04
608,694	0,04
609,112	0,04
609,53	0,04
609,947	0,04
610,365	0,04
610,783	0,04
611,2	0,04
611,618	0,04
612,036	0,04
612,453	0,04
612,87	0,04
613,288	0,04
613,705	0,04
614,122	0,04
614,539	0,04
614,957	0,04
615,374	0,04
615,791	0,04
616,208	0,04
616,624	0,04
617,041	0,04
617,458	0,04
617,875	0,04
618,291	0,04
618,708	0,04
619,125	0,04
619,541	0,04
619,958	0,04
620,374	0,04
620,79	0,04
621,206	0,04
621,623	0,04
622,039	0,04
622,455	0,04
622,871	0,04
623,287	0,04
623,703	0,04
624,119	0,04
624,535	0,04
624,95	0,04
625,366	0,04
625,782	0,04
626,197	0,04
626,613	0,04
627,028	0,04
627,444	0,04
627,859	0,04
628,274	0,04
628,69	0,04
629,105	0,04
629,52	0,04
629,935	0,04
630,35	0,04
630,765	0,04
631,18	0,04
631,595	0,04
632,009	0,04
632,424	0,04
632,839	0,04
633,253	0,04
633,668	0,04
634,082	0,04
634,497	0,04
634,911	0,04
635,326	0,04
635,74	0,04
636,154	0,04
636,568	0,04
636,982	0,04
637,396	0,04
637,81	0,04
638,224	0,04
638,638	0,04
639,052	0,04
639,466	0,04
639,879	0,04
640,293	0,04
640,707	0,04
641,12	0,04
641,534	0,04
641,947	0,04
642,36	0,04
642,774	0,04
643,187	0,04
643,6	0,04
644,013	0,04
644,426	0,04
644,839	0,04
645,252	0,04
645,665	0,04
646,078	0,04
646,491	0,04
646,904	0,04
647,316	0,04
647,729	0,04
648,141	0,04
648,554	0,04
648,966	0,04
649,379	0,04
649,791	0,04
650,203	0,04
650,615	0,04
651,028	0,04
651,44	0,04
651,852	0,04
652,264	0,04
652,676	0,04
653,087	0,04
653,499	0,04
653,911	0,04
654,323	0,04
654,734	0,04
655,146	0,04
655,557	0,04
655,969	0,04
656,38	0,04
656,792	0,04
657,203	0,04
657,614	0,03
658,025	0,03
658,436	0,03
658,847	0,04
659,258	0,04
659,669	0,04
660,08	0,04
660,491	0,04
660,902	0,04
661,312	0,04
661,723	0,04
662,134	0,04
662,544	0,04
662,955	0,04
663,365	0,04
663,775	0,04
664,186	0,04
664,596	0,04
665,006	0,04
665,416	0,04
665,826	0,04
666,236	0,04
666,646	0,04
667,056	0,04
667,466	0,04
667,876	0,04
668,286	0,04
668,695	0,04
669,105	0,04
669,514	0,04
669,924	0,04
670,333	0,04
670,743	0,04
671,152	0,04
671,561	0,04
671,97	0,04
672,38	0,04
672,789	0,04
673,198	0,04
673,607	0,04
674,016	0,04
674,424	0,04
674,833	0,04
675,242	0,04
675,651	0,04
676,059	0,04
676,468	0,04
676,876	0,04
677,285	0,04
677,693	0,04
678,101	0,04
678,51	0,04
678,918	0,04
679,326	0,04
679,734	0,04
680,142	0,04
680,55	0,04
680,958	0,04
681,366	0,04
681,774	0,04
682,181	0,04
682,589	0,04
682,997	0,04
683,404	0,04
683,812	0,04
684,219	0,04
684,627	0,04
685,034	0,04
685,441	0,04
685,848	0,04
686,256	0,04
686,663	0,04
687,07	0,04
687,477	0,04
687,884	0,04
688,29	0,04
688,697	0,04
689,104	0,04
689,511	0,04
689,917	0,04
690,324	0,04
690,73	0,04
691,137	0,04
691,543	0,04
691,95	0,04
692,356	0,04
692,762	0,04
693,168	0,04
693,574	0,04
693,98	0,04
694,386	0,04
694,792	0,04
695,198	0,04
695,604	0,04
696,01	0,04
696,415	0,04
696,821	0,04
697,227	0,04
697,632	0,04
698,038	0,04
698,443	0,04
698,848	0,04
699,254	0,04
699,659	0,04
700,064	0,04
700,469	0,04
700,874	0,04
701,279	0,04
701,684	0,04
702,089	0,04
702,494	0,04
702,898	0,04
703,303	0,04
703,708	0,04
704,112	0,04
704,517	0,04
704,921	0,04
705,326	0,04
705,73	0,04
706,134	0,04
706,538	0,04
706,943	0,04
707,347	0,04
707,751	0,04
708,155	0,04
708,559	0,04
708,963	0,04
709,366	0,04
709,77	0,04
710,174	0,04
710,577	0,04
710,981	0,04
711,384	0,04
711,788	0,04
712,191	0,04
712,595	0,04
712,998	0,04
713,401	0,04
713,804	0,04
714,207	0,04
714,61	0,04
715,013	0,04
715,416	0,04
715,819	0,04
716,222	0,04
716,625	0,04
717,027	0,04
717,43	0,04
717,833	0,04
718,235	0,04
718,638	0,04
719,04	0,04
719,442	0,04
719,844	0,04
720,247	0,04
720,649	0,04
721,051	0,04
721,453	0,04
721,855	0,04
722,257	0,04
722,659	0,04
723,06	0,04
723,462	0,04
723,864	0,04
724,265	0,04
724,667	0,04
725,069	0,04
725,47	0,04
725,871	0,04
726,273	0,04
726,674	0,04
727,075	0,04
727,476	0,04
727,877	0,04
728,278	0,04
728,679	0,04
729,08	0,04
729,481	0,04
729,882	0,04
730,282	0,04
730,683	0,04
731,084	0,04
731,484	0,04
731,885	0,04
732,285	0,04
732,686	0,04
733,086	0,04
733,486	0,04
733,886	0,04
734,286	0,04
734,686	0,04
735,086	0,04
735,486	0,04
735,886	0,04
736,286	0,04
736,686	0,04
737,086	0,04
737,485	0,04
737,885	0,04
738,284	0,04
738,684	0,04
739,083	0,04
739,482	0,04
739,882	0,04
740,281	0,04
740,68	0,04
741,079	0,04
741,478	0,04
741,877	0,04
742,276	0,04
742,675	0,04
743,074	0,04
743,473	0,04
743,871	0,04
744,27	0,04
744,668	0,04
745,067	0,04
745,465	0,04
745,864	0,04
746,262	0,04
746,66	0,04
747,059	0,04
747,457	0,04
747,855	0,04
748,253	0,04
748,651	0,04
749,049	0,04
749,447	0,04
749,844	0,04
750,242	0,04
750,64	0,04
751,037	0,04
751,435	0,04
751,832	0,04
752,23	0,04
752,627	0,04
753,024	0,04
753,422	0,04
753,819	0,04
754,216	0,04
754,613	0,04
755,01	0,04
755,407	0,04
755,804	0,04
756,201	0,04
756,597	0,04
756,994	0,04
757,391	0,04
757,787	0,04
758,184	0,04
758,58	0,04
758,977	0,04
759,373	0,04
759,769	0,04
760,166	0,04
760,562	0,04
760,958	0,04
761,354	0,04
761,75	0,04
762,146	0,04
762,542	0,04
762,937	0,04
763,333	0,04
763,729	0,04
764,124	0,04
764,52	0,04
764,915	0,04
765,311	0,04
765,706	0,04
766,101	0,04
766,497	0,04
766,892	0,04
767,287	0,04
767,682	0,04
768,077	0,04
768,472	0,04
768,867	0,04
769,262	0,04
769,657	0,04
770,051	0,04
770,446	0,04
770,84	0,04
771,235	0,04
771,629	0,04
772,024	0,04
772,418	0,04
772,812	0,04
773,207	0,04
773,601	0,04
773,995	0,04
774,389	0,04
774,783	0,04
775,177	0,04
775,571	0,04
775,964	0,04
776,358	0,04
776,752	0,04
777,145	0,04
777,539	0,04
777,932	0,04
778,326	0,04
778,719	0,04
779,113	0,04
779,506	0,04
779,899	0,04
780,292	0,04
780,685	0,04
781,078	0,04
781,471	0,04
781,864	0,04
782,257	0,04
782,65	0,04
783,042	0,04
783,435	0,04
783,827	0,04
784,22	0,04
784,612	0,04
785,005	0,04
785,397	0,04
785,789	0,04
786,182	0,04
786,574	0,04
786,966	0,04
787,358	0,04
787,75	0,04
788,142	0,04
788,534	0,04
788,925	0,04
789,317	0,04
789,709	0,04
790,1	0,04
790,492	0,04
790,883	0,04
791,275	0,04
791,666	0,04
792,057	0,04
792,449	0,04
792,84	0,04
793,231	0,04
793,622	0,04
794,013	0,04
794,404	0,04
794,795	0,04
795,185	0,04
795,576	0,04
795,967	0,04
796,357	0,04
796,748	0,04
797,138	0,04
797,529	0,04
797,919	0,04
798,31	0,04
798,7	0,04
799,09	0,04
799,48	0,04
799,87	0,04
800,26	0,04
800,65	0,04
801,04	0,04
801,43	0,04
801,82	0,04
802,209	0,04
802,599	0,04
802,988	0,04
803,378	0,04
803,767	0,04
804,157	0,04
804,546	0,04
804,935	0,04
805,325	0,04
805,714	0,04
806,103	0,04
806,492	0,04
806,881	0,04
807,27	0,04
807,658	0,04
808,047	0,04
808,436	0,04
808,824	0,04
809,213	0,04
809,602	0,04
809,99	0,04
810,378	0,04
810,767	0,04
811,155	0,04
811,543	0,04
811,931	0,04
812,319	0,04
812,708	0,04
813,095	0,04
813,483	0,04
813,871	0,04
814,259	0,04
814,647	0,04
815,034	0,04
815,422	0,04
815,809	0,04
816,197	0,04
816,584	0,04
816,972	0,04
817,359	0,04
817,746	0,04
818,133	0,04
818,52	0,04
818,907	0,04
819,294	0,04
819,681	0,04
820,068	0,04
820,455	0,04
820,842	0,04
821,228	0,04
821,615	0,04
822,002	0,04
822,388	0,04
822,774	0,04
823,161	0,04
823,547	0,04
823,933	0,03
824,319	0,04
824,706	0,04
825,092	0,04
825,478	0,04
825,863	0,03
826,249	0,04
826,635	0,04
827,021	0,03
827,407	0,03
827,792	0,04
828,178	0,04
828,563	0,04
828,949	0,04
829,334	0,04
829,719	0,04
830,104	0,03
830,49	0,04
830,875	0,04
831,26	0,03
831,645	0,04
832,03	0,03
832,415	0,03
832,799	0,04
833,184	0,04
833,569	0,04
833,953	0,03
834,338	0,03
834,722	0,04
835,107	0,04
835,491	0,04
835,875	0,04
836,26	0,03
836,644	0,04
837,028	0,04
837,412	0,03
837,796	0,03
838,18	0,03
838,564	0,03
838,948	0,04
839,331	0,03
839,715	0,04
840,099	0,04
840,482	0,03
840,866	0,04
841,249	0,04
841,632	0,03
842,016	0,03
842,399	0,04
842,782	0,03
843,165	0,03
843,548	0,04
843,931	0,04
844,314	0,04
844,697	0,04
845,08	0,04
845,463	0,03
845,845	0,03
846,228	0,04
846,61	0,04
846,993	0,03
847,375	0,03
847,758	0,04
848,14	0,03
848,522	0,03
848,904	0,03
849,286	0,03
849,668	0,03
850,05	0,03
850,432	0,03
850,814	0,03
851,196	0,03
851,578	0,04
851,959	0,03
852,341	0,03
852,722	0,03
853,104	0,03
853,485	0,03
853,867	0,03
854,248	0,03
854,629	0,03
855,01	0,03
855,391	0,03
855,773	0,03
856,153	0,03
856,534	0,04
856,915	0,04
857,296	0,04
857,677	0,04
858,057	0,03
858,438	0,03
858,819	0,03
859,199	0,03
859,579	0,04
859,96	0,03
860,34	0,03
860,72	0,03
861,1	0,03
861,48	0,03
861,86	0,03
862,24	0,03
862,62	0,03
863	0,04
863,38	0,03
863,76	0,03
864,139	0,03
864,519	0,04
864,898	0,03
865,278	0,03
865,657	0,03
866,037	0,04
866,416	0,03
866,795	0,03
867,174	0,03
867,553	0,04
867,932	0,03
868,311	0,03
868,69	0,03
869,069	0,03
869,448	0,04
869,826	0,03
870,205	0,03
870,584	0,03
870,962	0,04
871,341	0,03
871,719	0,03
872,097	0,03
872,475	0,04
872,854	0,04
873,232	0,04
873,61	0,04
873,988	0,03
874,366	0,03
874,744	0,04
875,121	0,04
875,499	0,03
875,877	0,04
876,255	0,04
876,632	0,04
877,01	0,04
877,387	0,03
877,764	0,04
878,142	0,04
878,519	0,04
878,896	0,03
879,273	0,04
879,65	0,04
880,027	0,04
880,404	0,04
880,781	0,04
881,158	0,04
881,534	0,04
881,911	0,04
882,288	0,04
882,664	0,04
883,041	0,04
883,417	0,04
883,793	0,04
884,17	0,04
884,546	0,04
884,922	0,04
885,298	0,04
885,674	0,04
886,05	0,04
886,426	0,04
886,802	0,04
887,178	0,04
887,553	0,04
887,929	0,05
888,305	0,04
888,68	0,04
889,056	0,05
889,431	0,04
889,806	0,04
890,182	0,04
890,557	0,04
890,932	0,05
891,307	0,05
891,682	0,04
892,057	0,04
892,432	0,05
892,807	0,04
893,181	0,05
893,556	0,05
893,931	0,04
894,305	0,05
894,68	0,05
895,054	0,05
895,428	0,05
895,803	0,05
896,177	0,05
896,551	0,05
896,925	0,05
897,299	0,05
897,673	0,05
898,047	0,05
898,421	0,05
898,795	0,05
899,169	0,05
899,542	0,05
899,916	0,05
900,289	0,05
900,663	0,05
901,036	0,05
901,41	0,05
901,783	0,05
902,156	0,05
902,529	0,05
902,902	0,06
903,275	0,05
903,648	0,06
904,021	0,06
904,394	0,06
904,767	0,06
905,139	0,06
905,512	0,06
905,885	0,06
906,257	0,06
906,629	0,05
907,002	0,06
907,374	0,06
907,746	0,06
908,119	0,06
908,491	0,06
908,863	0,06
909,235	0,06
909,607	0,06
909,978	0,06
910,35	0,06
910,722	0,06
911,094	0,06
911,465	0,06
911,837	0,06
912,208	0,06
912,58	0,05
912,951	0,06
913,322	0,05
913,693	0,06
914,065	0,06
914,436	0,05
914,807	0,06
915,178	0,05
915,548	0,06
915,919	0,06
916,29	0,05
916,661	0,06
917,031	0,06
917,402	0,05
917,772	0,06
918,143	0,06
918,513	0,05
918,884	0,06
919,254	0,06
919,624	0,05
919,994	0,06
920,364	0,06
920,734	0,05
921,104	0,06
921,474	0,06
921,844	0,05
922,213	0,06
922,583	0,05
922,953	0,06
923,322	0,06
923,692	0,06
924,061	0,06
924,43	0,05
924,8	0,06
925,169	0,06
925,538	0,06
925,907	0,05
926,276	0,05
926,645	0,06
927,014	0,05
927,383	0,06
927,751	0,06
928,12	0,05
928,489	0,06
928,857	0,06
929,226	0,06
929,594	0,05
929,962	0,05
930,331	0,06
930,699	0,05
931,067	0,06
931,435	0,06
931,803	0,06
932,171	0,05
932,539	0,06
932,907	0,05
933,275	0,05
933,642	0,06
934,01	0,05
934,378	0,06
934,745	0,06
935,113	0,06
935,48	0,05
935,847	0,05
936,215	0,06
936,582	0,04
936,949	0,05
937,316	0,05
937,683	0,05
938,05	0,06
938,417	0,05
938,783	0,05
939,15	0,05
939,517	0,04
939,883	0,06
940,25	0,05
940,616	0,05
940,983	0,05
941,349	0,05
941,715	0,05
942,082	0,05
942,448	0,05
942,814	0,05
943,18	0,04
943,546	0,06
943,912	0,04
944,277	0,05
944,643	0,05
945,009	0,06
945,374	0,05
945,74	0,05
946,105	0,05
946,471	0,04
946,836	0,05
947,202	0,05
947,567	0,04
947,932	0,04
948,297	0,04
948,662	0,05
949,027	0,05
949,392	0,05
949,757	0,04
950,121	0,05
950,486	0,04
950,851	0,03
951,215	0,06
951,58	0,04
951,944	0,04
952,309	0,05
952,673	0,05
953,037	0,05
953,401	0,04
953,765	0,04
954,129	0,04
954,493	0,04
954,857	0,04
955,221	0,04
955,585	0,04
955,949	0,06
956,312	0,04
956,676	0,03
957,039	0,04
957,403	0,04
957,766	0,04
958,13	0,04
958,493	0,06
958,856	0,04
959,219	0,03
959,582	0,05
959,945	0,04
960,308	0,04
960,671	0,05
961,034	0,03
961,396	0,05
961,759	0,05
962,122	0,05
962,484	0,04
962,847	0,04
963,209	0,04
963,571	0,04
963,934	0,06
964,296	0,03
964,658	0,05
965,02	0,04
965,382	0,06
965,744	0,04
966,106	0,04
966,468	0,04
966,829	0,04
967,191	0,04
967,553	0,04
967,914	0,07
968,276	0,04
968,637	0,04
968,998	0,04
969,36	0,06
969,721	0,06
970,082	0,03
970,443	0,03
970,804	0,03
971,165	0,04
971,526	0,04
971,887	0,05
972,247	0,04
972,608	0,04
972,969	0,05
973,329	0,05
973,69	0,05
974,05	0,05
974,41	0,05
974,771	0,06
975,131	0,04
975,491	0,06
975,851	0,06
976,211	0,06
976,571	0,05
976,931	0,05
977,291	0,06
977,65	0,06
978,01	0,04
978,37	0,07
978,729	0,04
979,089	0,05
979,448	0,06
979,807	0,02
980,167	0,04
980,526	0,07
980,885	0,05
981,244	0,06
981,603	0,04
981,962	0,08
982,321	0,08
982,68	0,07
983,038	0,02
983,397	0,05
983,756	0,07
984,114	0,06
984,473	0,07
984,831	0,07
985,19	0,06
985,548	0,05
985,906	0,05
986,264	0,04
986,622	0,09
986,98	0,07
987,338	0,02
987,696	0,07
988,054	0,04
988,412	0,06
988,769	0,05
989,127	0,04
989,484	0,05
989,842	0,06
990,199	0,07
990,557	0,04
990,914	0,03
991,271	0,02
991,628	0,07
991,985	0,06
992,342	0,05
992,699	0,06
993,056	0,05
993,413	0,03
993,77	0,07
994,126	0,07
994,483	0,05
994,84	0,05
995,196	0,02
995,552	0,07
995,909	0,05
996,265	0,08
996,621	0,07
996,977	0,07
997,333	0,05
997,689	0,04
998,045	0,06
998,401	0,07
998,757	0,09
999,113	0,03
999,468	0,05
999,824	0,04
1000,18	0,05
1000,535	0,03
1000,89	0,05
1001,246	0,06
1001,601	0,05
1001,956	0,05
1002,311	0,05
1002,666	0,06
1003,021	0,06
1003,376	0,04
1003,731	0,07
1004,086	0,05
1004,441	0,01
1004,795	0,04
1005,15	0,1
1005,505	0,04
1005,859	0,04
1006,213	0,05
1006,568	0
1006,922	-0,01
1007,276	0,03
1007,63	0,12
1007,984	0,08
1008,338	0,04
1008,692	0,03
1009,046	0,03
1009,4	0,03
1009,754	0,05
1010,107	-0,01
1010,461	0,01
1010,814	0,06
1011,168	0,04
1011,521	0,07
1011,874	0,03
1012,228	0,07
1012,581	0,04
1012,934	0,03
1013,287	0,03
1013,64	0,05
1013,993	0,09
1014,346	0,05
1014,699	0,01
1015,051	-0,02
1015,404	0,04
1015,756	0,07
1016,109	0,11
1016,461	0,07
1016,814	0,05
1017,166	-0
1017,518	0,01
1017,87	0,03
1018,223	0,05
1018,575	0,06
1018,927	0,05
1019,278	0,06
1019,63	-0,03
1019,982	0,05
1020,334	0,06
1020,685	0,11
1021,037	0,04
1021,388	0,03
1021,74	0,07
1022,091	0,08
1022,442	0,02
1022,794	0,07
1023,145	0,06
1023,496	0,05
1023,847	0,06
1024,198	0,06
1024,549	-0,01
1024,9	0,04
1025,25	0,06
1025,601	0,03
1025,952	0,04
1026,302	0,02
1026,653	0,07
1027,003	0,01
1027,353	0
1027,704	0,05
1028,054	0,08
1028,404	0,04
1028,754	0,04
1029,104	0,05
1029,454	0,1
1029,804	0,01
1030,154	0,03
1030,503	0,03
1030,853	0,03
