Data from Absorbance__27__15-21-02-788.txt Node

Date: Wed May 05 15:21:02 CEST 2021
User: thoma
Spectrometer: FLMS06037
Trigger mode: 0
Integration Time (sec): 1,451500E-1
Scans to average: 10
Electric dark correction enabled: true
Nonlinearity correction enabled: false
Boxcar width: 0
XAxis mode: Wavelengths
Number of Pixels in Spectrum: 2048
>>>>>Begin Spectral Data<<<<<
187,642	-0
188,109	-0
188,576	-0
189,043	-0
189,51	-0
189,976	-0,18
190,443	-0,44
190,91	0,65
191,376	0,82
191,843	-0
192,309	0,25
192,776	-0,09
193,242	0,41
193,708	-0,35
194,175	0,56
194,641	-0,35
195,107	-0
195,573	0,38
196,039	-0,11
196,505	-0,5
196,971	-0
197,437	-0
197,903	0,51
198,369	0,07
198,835	0,1
199,301	0,11
199,766	0,11
200,232	0,11
200,698	0,12
201,163	0,11
201,629	0,13
202,094	0,1
202,56	0,13
203,025	0,12
203,49	0,12
203,956	0,12
204,421	0,12
204,886	0,13
205,351	0,14
205,816	0,14
206,281	0,12
206,746	0,14
207,211	0,12
207,676	0,13
208,141	0,14
208,606	0,14
209,071	0,15
209,536	0,16
210	0,17
210,465	0,17
210,929	0,2
211,394	0,22
211,859	0,24
212,323	0,24
212,787	0,29
213,252	0,29
213,716	0,32
214,18	0,35
214,645	0,41
215,109	0,45
215,573	0,46
216,037	0,51
216,501	0,57
216,965	0,61
217,429	0,67
217,893	0,7
218,357	0,77
218,82	0,83
219,284	0,88
219,748	0,94
220,211	0,99
220,675	1,05
221,139	1,1
221,602	1,15
222,066	1,18
222,529	1,19
222,992	1,26
223,456	1,27
223,919	1,31
224,382	1,36
224,845	1,37
225,308	1,4
225,772	1,39
226,235	1,43
226,698	1,44
227,16	1,47
227,623	1,47
228,086	1,48
228,549	1,49
229,012	1,5
229,474	1,52
229,937	1,51
230,4	1,52
230,862	1,54
231,325	1,54
231,787	1,52
232,25	1,53
232,712	1,54
233,174	1,53
233,637	1,54
234,099	1,54
234,561	1,53
235,023	1,52
235,485	1,53
235,947	1,54
236,409	1,52
236,871	1,54
237,333	1,54
237,795	1,54
238,257	1,52
238,718	1,54
239,18	1,54
239,642	1,53
240,103	1,52
240,565	1,52
241,026	1,52
241,488	1,51
241,949	1,52
242,411	1,53
242,872	1,53
243,333	1,52
243,795	1,51
244,256	1,5
244,717	1,5
245,178	1,51
245,639	1,51
246,1	1,49
246,561	1,5
247,022	1,53
247,483	1,54
247,943	1,56
248,404	1,57
248,865	1,54
249,325	1,55
249,786	1,56
250,247	1,57
250,707	1,56
251,168	1,56
251,628	1,57
252,088	1,57
252,549	1,58
253,009	1,56
253,469	1,57
253,929	1,57
254,389	1,58
254,849	1,59
255,309	1,58
255,769	1,59
256,229	1,59
256,689	1,62
257,149	1,6
257,609	1,63
258,069	1,61
258,528	1,61
258,988	1,63
259,448	1,63
259,907	1,62
260,367	1,64
260,826	1,64
261,285	1,63
261,745	1,63
262,204	1,63
262,663	1,63
263,122	1,64
263,582	1,63
264,041	1,67
264,5	1,66
264,959	1,64
265,418	1,66
265,877	1,64
266,336	1,66
266,794	1,65
267,253	1,66
267,712	1,66
268,171	1,64
268,629	1,65
269,088	1,66
269,546	1,65
270,005	1,65
270,463	1,65
270,922	1,67
271,38	1,63
271,838	1,65
272,296	1,65
272,755	1,63
273,213	1,65
273,671	1,66
274,129	1,63
274,587	1,63
275,045	1,65
275,503	1,62
275,961	1,64
276,418	1,66
276,876	1,64
277,334	1,64
277,791	1,64
278,249	1,63
278,707	1,65
279,164	1,64
279,622	1,63
280,079	1,64
280,536	1,65
280,994	1,65
281,451	1,64
281,908	1,64
282,365	1,63
282,822	1,63
283,28	1,64
283,737	1,64
284,193	1,65
284,65	1,65
285,107	1,64
285,564	1,65
286,021	1,63
286,478	1,65
286,934	1,62
287,391	1,63
287,848	1,63
288,304	1,64
288,761	1,62
289,217	1,61
289,673	1,63
290,13	1,64
290,586	1,62
291,042	1,62
291,498	1,64
291,955	1,62
292,411	1,64
292,867	1,63
293,323	1,63
293,779	1,62
294,235	1,61
294,69	1,64
295,146	1,61
295,602	1,61
296,058	1,61
296,513	1,63
296,969	1,61
297,424	1,62
297,88	1,6
298,335	1,59
298,791	1,59
299,246	1,57
299,701	1,59
300,157	1,59
300,612	1,58
301,067	1,59
301,522	1,6
301,977	1,58
302,432	1,58
302,887	1,61
303,342	1,6
303,797	1,59
304,252	1,59
304,707	1,59
305,161	1,58
305,616	1,6
306,071	1,58
306,525	1,58
306,98	1,59
307,434	1,58
307,889	1,59
308,343	1,57
308,797	1,58
309,252	1,57
309,706	1,58
310,16	1,57
310,614	1,58
311,068	1,57
311,522	1,56
311,976	1,57
312,43	1,56
312,884	1,57
313,338	1,55
313,792	1,55
314,245	1,55
314,699	1,54
315,153	1,54
315,606	1,55
316,06	1,54
316,513	1,53
316,967	1,53
317,42	1,53
317,873	1,53
318,327	1,54
318,78	1,54
319,233	1,53
319,686	1,51
320,139	1,53
320,592	1,53
321,045	1,52
321,498	1,52
321,951	1,53
322,404	1,51
322,857	1,51
323,31	1,5
323,762	1,49
324,215	1,48
324,667	1,49
325,12	1,45
325,573	1,46
326,025	1,44
326,477	1,46
326,93	1,47
327,382	1,5
327,834	1,52
328,286	1,53
328,739	1,52
329,191	1,51
329,643	1,51
330,095	1,49
330,547	1,49
330,999	1,47
331,45	1,46
331,902	1,45
332,354	1,46
332,806	1,44
333,257	1,44
333,709	1,45
334,16	1,43
334,612	1,44
335,063	1,44
335,515	1,44
335,966	1,45
336,417	1,45
336,869	1,47
337,32	1,45
337,771	1,43
338,222	1,4
338,673	1,38
339,124	1,37
339,575	1,36
340,026	1,36
340,477	1,36
340,928	1,36
341,378	1,35
341,829	1,36
342,28	1,35
342,73	1,36
343,181	1,36
343,631	1,34
344,082	1,33
344,532	1,32
344,982	1,31
345,433	1,33
345,883	1,31
346,333	1,32
346,783	1,32
347,233	1,31
347,683	1,32
348,133	1,31
348,583	1,31
349,033	1,31
349,483	1,31
349,933	1,29
350,383	1,3
350,832	1,29
351,282	1,29
351,732	1,28
352,181	1,29
352,631	1,29
353,08	1,27
353,529	1,28
353,979	1,27
354,428	1,25
354,877	1,26
355,327	1,25
355,776	1,27
356,225	1,24
356,674	1,23
357,123	1,24
357,572	1,23
358,021	1,25
358,469	1,22
358,918	1,22
359,367	1,22
359,816	1,21
360,264	1,2
360,713	1,22
361,161	1,21
361,61	1,21
362,058	1,2
362,507	1,19
362,955	1,19
363,403	1,18
363,852	1,2
364,3	1,18
364,748	1,17
365,196	1,18
365,644	1,17
366,092	1,16
366,54	1,16
366,988	1,17
367,436	1,15
367,883	1,16
368,331	1,15
368,779	1,14
369,226	1,15
369,674	1,15
370,121	1,14
370,569	1,12
371,016	1,13
371,464	1,11
371,911	1,11
372,358	1,12
372,805	1,11
373,253	1,1
373,7	1,1
374,147	1,08
374,594	1,1
375,041	1,08
375,488	1,08
375,935	1,05
376,381	1,06
376,828	1,05
377,275	1,03
377,721	1,03
378,168	1,03
378,615	1,01
379,061	1
379,508	0,99
379,954	0,98
380,4	0,97
380,847	0,96
381,293	0,95
381,739	0,94
382,185	0,94
382,631	0,92
383,077	0,9
383,523	0,89
383,969	0,87
384,415	0,87
384,861	0,86
385,307	0,84
385,752	0,83
386,198	0,81
386,644	0,81
387,089	0,79
387,535	0,78
387,98	0,77
388,426	0,75
388,871	0,75
389,317	0,74
389,762	0,72
390,207	0,72
390,652	0,69
391,097	0,69
391,542	0,67
391,987	0,67
392,432	0,66
392,877	0,65
393,322	0,65
393,767	0,63
394,212	0,62
394,656	0,61
395,101	0,6
395,546	0,59
395,99	0,59
396,435	0,57
396,879	0,57
397,324	0,56
397,768	0,56
398,212	0,55
398,657	0,53
399,101	0,54
399,545	0,52
399,989	0,52
400,433	0,51
400,877	0,51
401,321	0,5
401,765	0,49
402,209	0,48
402,653	0,48
403,096	0,47
403,54	0,47
403,984	0,46
404,427	0,46
404,871	0,45
405,314	0,45
405,758	0,45
406,201	0,44
406,644	0,43
407,088	0,43
407,531	0,42
407,974	0,42
408,417	0,41
408,86	0,41
409,303	0,41
409,746	0,4
410,189	0,4
410,632	0,4
411,075	0,39
411,517	0,39
411,96	0,38
412,403	0,37
412,845	0,37
413,288	0,37
413,73	0,37
414,173	0,36
414,615	0,36
415,058	0,36
415,5	0,35
415,942	0,35
416,384	0,35
416,826	0,34
417,268	0,34
417,711	0,34
418,152	0,34
418,594	0,33
419,036	0,33
419,478	0,33
419,92	0,32
420,362	0,32
420,803	0,32
421,245	0,32
421,686	0,32
422,128	0,32
422,569	0,31
423,011	0,31
423,452	0,31
423,893	0,31
424,335	0,3
424,776	0,3
425,217	0,3
425,658	0,3
426,099	0,3
426,54	0,29
426,981	0,29
427,422	0,29
427,863	0,29
428,304	0,29
428,744	0,29
429,185	0,28
429,626	0,28
430,066	0,28
430,507	0,28
430,947	0,28
431,388	0,28
431,828	0,28
432,268	0,27
432,709	0,27
433,149	0,27
433,589	0,27
434,029	0,27
434,469	0,26
434,909	0,26
435,349	0,26
435,789	0,25
436,229	0,25
436,669	0,25
437,108	0,25
437,548	0,26
437,988	0,25
438,427	0,25
438,867	0,25
439,306	0,25
439,746	0,24
440,185	0,24
440,624	0,24
441,064	0,24
441,503	0,24
441,942	0,24
442,381	0,24
442,82	0,24
443,259	0,24
443,698	0,23
444,137	0,23
444,576	0,23
445,015	0,23
445,453	0,23
445,892	0,23
446,331	0,23
446,769	0,23
447,208	0,22
447,646	0,23
448,085	0,23
448,523	0,22
448,961	0,22
449,4	0,22
449,838	0,22
450,276	0,22
450,714	0,22
451,152	0,22
451,59	0,22
452,028	0,21
452,466	0,22
452,904	0,22
453,342	0,22
453,779	0,22
454,217	0,21
454,655	0,21
455,092	0,21
455,53	0,21
455,967	0,2
456,405	0,2
456,842	0,2
457,279	0,21
457,717	0,2
458,154	0,2
458,591	0,2
459,028	0,2
459,465	0,2
459,902	0,2
460,339	0,2
460,776	0,2
461,213	0,19
461,65	0,19
462,086	0,2
462,523	0,2
462,96	0,19
463,396	0,19
463,833	0,19
464,269	0,19
464,706	0,19
465,142	0,19
465,578	0,2
466,015	0,19
466,451	0,19
466,887	0,19
467,323	0,19
467,759	0,18
468,195	0,19
468,631	0,19
469,067	0,19
469,503	0,19
469,939	0,19
470,374	0,19
470,81	0,19
471,246	0,18
471,681	0,19
472,117	0,18
472,552	0,18
472,988	0,18
473,423	0,18
473,858	0,18
474,294	0,18
474,729	0,18
475,164	0,18
475,599	0,18
476,034	0,18
476,469	0,18
476,904	0,18
477,339	0,18
477,774	0,18
478,208	0,18
478,643	0,18
479,078	0,18
479,512	0,17
479,947	0,17
480,381	0,17
480,816	0,18
481,25	0,17
481,685	0,17
482,119	0,18
482,553	0,17
482,987	0,17
483,421	0,17
483,856	0,17
484,29	0,17
484,724	0,17
485,157	0,17
485,591	0,17
486,025	0,17
486,459	0,17
486,893	0,17
487,326	0,17
487,76	0,17
488,193	0,17
488,627	0,16
489,06	0,17
489,494	0,16
489,927	0,16
490,36	0,17
490,794	0,17
491,227	0,16
491,66	0,16
492,093	0,16
492,526	0,16
492,959	0,16
493,392	0,16
493,825	0,16
494,257	0,16
494,69	0,16
495,123	0,16
495,555	0,16
495,988	0,16
496,421	0,16
496,853	0,16
497,285	0,16
497,718	0,16
498,15	0,16
498,582	0,15
499,015	0,16
499,447	0,16
499,879	0,16
500,311	0,16
500,743	0,15
501,175	0,15
501,607	0,15
502,038	0,15
502,47	0,16
502,902	0,16
503,334	0,15
503,765	0,15
504,197	0,15
504,628	0,15
505,06	0,15
505,491	0,15
505,922	0,15
506,354	0,15
506,785	0,15
507,216	0,15
507,647	0,15
508,078	0,14
508,509	0,15
508,94	0,15
509,371	0,15
509,802	0,15
510,233	0,15
510,664	0,15
511,094	0,15
511,525	0,15
511,955	0,15
512,386	0,15
512,816	0,15
513,247	0,15
513,677	0,15
514,108	0,15
514,538	0,14
514,968	0,14
515,398	0,15
515,828	0,14
516,258	0,14
516,688	0,14
517,118	0,14
517,548	0,15
517,978	0,14
518,408	0,14
518,837	0,14
519,267	0,14
519,697	0,14
520,126	0,14
520,556	0,14
520,985	0,14
521,415	0,14
521,844	0,14
522,273	0,14
522,702	0,14
523,132	0,14
523,561	0,14
523,99	0,14
524,419	0,14
524,848	0,14
525,277	0,14
525,705	0,14
526,134	0,14
526,563	0,14
526,992	0,13
527,42	0,14
527,849	0,14
528,277	0,13
528,706	0,13
529,134	0,13
529,563	0,13
529,991	0,13
530,419	0,13
530,847	0,13
531,275	0,13
531,703	0,13
532,131	0,13
532,559	0,13
532,987	0,13
533,415	0,13
533,843	0,13
534,271	0,13
534,698	0,13
535,126	0,13
535,554	0,13
535,981	0,13
536,409	0,13
536,836	0,13
537,264	0,12
537,691	0,12
538,118	0,13
538,545	0,13
538,972	0,13
539,4	0,13
539,827	0,12
540,254	0,12
540,681	0,12
541,107	0,12
541,534	0,12
541,961	0,12
542,388	0,12
542,814	0,13
543,241	0,12
543,667	0,12
544,094	0,12
544,52	0,12
544,947	0,12
545,373	0,12
545,799	0,12
546,226	0,12
546,652	0,12
547,078	0,12
547,504	0,12
547,93	0,12
548,356	0,12
548,782	0,12
549,208	0,11
549,633	0,11
550,059	0,11
550,485	0,11
550,91	0,12
551,336	0,11
551,761	0,11
552,187	0,12
552,612	0,11
553,038	0,11
553,463	0,11
553,888	0,11
554,313	0,11
554,738	0,11
555,163	0,11
555,588	0,11
556,013	0,11
556,438	0,11
556,863	0,11
557,288	0,11
557,713	0,11
558,137	0,11
558,562	0,11
558,986	0,11
559,411	0,11
559,835	0,11
560,26	0,11
560,684	0,11
561,108	0,11
561,533	0,11
561,957	0,1
562,381	0,11
562,805	0,11
563,229	0,11
563,653	0,11
564,077	0,1
564,501	0,1
564,925	0,11
565,348	0,1
565,772	0,1
566,196	0,1
566,619	0,1
567,043	0,1
567,466	0,1
567,89	0,1
568,313	0,1
568,736	0,1
569,159	0,1
569,583	0,1
570,006	0,1
570,429	0,1
570,852	0,1
571,275	0,1
571,698	0,1
572,12	0,09
572,543	0,09
572,966	0,09
573,389	0,09
573,811	0,09
574,234	0,09
574,656	0,09
575,079	0,09
575,501	0,09
575,924	0,09
576,346	0,09
576,768	0,09
577,19	0,09
577,612	0,09
578,034	0,09
578,456	0,09
578,878	0,09
579,3	0,09
579,722	0,09
580,144	0,09
580,566	0,08
580,987	0,09
581,409	0,09
581,83	0,09
582,252	0,08
582,673	0,08
583,095	0,08
583,516	0,08
583,937	0,08
584,359	0,08
584,78	0,09
585,201	0,09
585,622	0,09
586,043	0,09
586,464	0,08
586,885	0,08
587,306	0,08
587,726	0,08
588,147	0,08
588,568	0,08
588,988	0,08
589,409	0,08
589,83	0,08
590,25	0,09
590,67	0,08
591,091	0,08
591,511	0,08
591,931	0,09
592,351	0,08
592,771	0,09
593,192	0,08
593,612	0,08
594,031	0,08
594,451	0,08
594,871	0,08
595,291	0,08
595,711	0,08
596,13	0,08
596,55	0,08
596,969	0,08
597,389	0,08
597,808	0,08
598,228	0,08
598,647	0,08
599,066	0,08
599,486	0,08
599,905	0,08
600,324	0,07
600,743	0,07
601,162	0,07
601,581	0,07
602	0,07
602,418	0,07
602,837	0,07
603,256	0,08
603,674	0,08
604,093	0,08
604,512	0,08
604,93	0,08
605,349	0,07
605,767	0,07
606,185	0,07
606,603	0,07
607,022	0,07
607,44	0,07
607,858	0,07
608,276	0,07
608,694	0,07
609,112	0,07
609,53	0,07
609,947	0,07
610,365	0,07
610,783	0,07
611,2	0,08
611,618	0,07
612,036	0,07
612,453	0,08
612,87	0,07
613,288	0,07
613,705	0,07
614,122	0,07
614,539	0,07
614,957	0,07
615,374	0,07
615,791	0,07
616,208	0,07
616,624	0,07
617,041	0,07
617,458	0,07
617,875	0,08
618,291	0,07
618,708	0,07
619,125	0,07
619,541	0,08
619,958	0,07
620,374	0,07
620,79	0,07
621,206	0,08
621,623	0,07
622,039	0,07
622,455	0,07
622,871	0,08
623,287	0,07
623,703	0,07
624,119	0,07
624,535	0,07
624,95	0,07
625,366	0,07
625,782	0,07
626,197	0,07
626,613	0,07
627,028	0,07
627,444	0,07
627,859	0,07
628,274	0,07
628,69	0,07
629,105	0,07
629,52	0,07
629,935	0,07
630,35	0,07
630,765	0,07
631,18	0,07
631,595	0,07
632,009	0,07
632,424	0,07
632,839	0,07
633,253	0,07
633,668	0,07
634,082	0,07
634,497	0,07
634,911	0,07
635,326	0,07
635,74	0,07
636,154	0,07
636,568	0,07
636,982	0,07
637,396	0,07
637,81	0,07
638,224	0,07
638,638	0,07
639,052	0,07
639,466	0,07
639,879	0,07
640,293	0,07
640,707	0,07
641,12	0,07
641,534	0,07
641,947	0,07
642,36	0,07
642,774	0,07
643,187	0,07
643,6	0,07
644,013	0,07
644,426	0,07
644,839	0,07
645,252	0,07
645,665	0,07
646,078	0,07
646,491	0,07
646,904	0,07
647,316	0,07
647,729	0,07
648,141	0,07
648,554	0,07
648,966	0,07
649,379	0,07
649,791	0,07
650,203	0,07
650,615	0,07
651,028	0,07
651,44	0,07
651,852	0,07
652,264	0,07
652,676	0,07
653,087	0,07
653,499	0,07
653,911	0,07
654,323	0,07
654,734	0,07
655,146	0,07
655,557	0,07
655,969	0,07
656,38	0,07
656,792	0,06
657,203	0,06
657,614	0,06
658,025	0,06
658,436	0,06
658,847	0,06
659,258	0,07
659,669	0,06
660,08	0,07
660,491	0,07
660,902	0,07
661,312	0,07
661,723	0,07
662,134	0,07
662,544	0,07
662,955	0,07
663,365	0,07
663,775	0,07
664,186	0,07
664,596	0,07
665,006	0,07
665,416	0,07
665,826	0,06
666,236	0,07
666,646	0,07
667,056	0,07
667,466	0,07
667,876	0,07
668,286	0,07
668,695	0,07
669,105	0,07
669,514	0,07
669,924	0,06
670,333	0,07
670,743	0,06
671,152	0,06
671,561	0,07
671,97	0,06
672,38	0,06
672,789	0,06
673,198	0,07
673,607	0,06
674,016	0,06
674,424	0,06
674,833	0,06
675,242	0,06
675,651	0,06
676,059	0,06
676,468	0,06
676,876	0,06
677,285	0,06
677,693	0,07
678,101	0,06
678,51	0,06
678,918	0,06
679,326	0,06
679,734	0,06
680,142	0,06
680,55	0,06
680,958	0,06
681,366	0,06
681,774	0,06
682,181	0,06
682,589	0,06
682,997	0,06
683,404	0,06
683,812	0,06
684,219	0,06
684,627	0,06
685,034	0,06
685,441	0,06
685,848	0,06
686,256	0,06
686,663	0,06
687,07	0,06
687,477	0,06
687,884	0,06
688,29	0,06
688,697	0,06
689,104	0,06
689,511	0,06
689,917	0,06
690,324	0,06
690,73	0,06
691,137	0,06
691,543	0,06
691,95	0,06
692,356	0,06
692,762	0,06
693,168	0,06
693,574	0,06
693,98	0,06
694,386	0,06
694,792	0,06
695,198	0,06
695,604	0,06
696,01	0,06
696,415	0,06
696,821	0,06
697,227	0,06
697,632	0,06
698,038	0,06
698,443	0,06
698,848	0,06
699,254	0,06
699,659	0,06
700,064	0,06
700,469	0,06
700,874	0,06
701,279	0,06
701,684	0,06
702,089	0,06
702,494	0,06
702,898	0,06
703,303	0,06
703,708	0,06
704,112	0,06
704,517	0,06
704,921	0,06
705,326	0,06
705,73	0,06
706,134	0,06
706,538	0,06
706,943	0,06
707,347	0,06
707,751	0,06
708,155	0,06
708,559	0,06
708,963	0,06
709,366	0,06
709,77	0,06
710,174	0,06
710,577	0,06
710,981	0,06
711,384	0,06
711,788	0,06
712,191	0,06
712,595	0,06
712,998	0,06
713,401	0,06
713,804	0,06
714,207	0,06
714,61	0,06
715,013	0,06
715,416	0,06
715,819	0,06
716,222	0,06
716,625	0,06
717,027	0,06
717,43	0,06
717,833	0,06
718,235	0,06
718,638	0,06
719,04	0,06
719,442	0,06
719,844	0,06
720,247	0,06
720,649	0,06
721,051	0,06
721,453	0,06
721,855	0,06
722,257	0,06
722,659	0,06
723,06	0,06
723,462	0,06
723,864	0,06
724,265	0,06
724,667	0,06
725,069	0,06
725,47	0,06
725,871	0,05
726,273	0,05
726,674	0,06
727,075	0,06
727,476	0,06
727,877	0,06
728,278	0,06
728,679	0,06
729,08	0,06
729,481	0,05
729,882	0,05
730,282	0,06
730,683	0,05
731,084	0,06
731,484	0,05
731,885	0,05
732,285	0,06
732,686	0,06
733,086	0,05
733,486	0,05
733,886	0,05
734,286	0,06
734,686	0,05
735,086	0,05
735,486	0,06
735,886	0,06
736,286	0,05
736,686	0,05
737,086	0,05
737,485	0,05
737,885	0,05
738,284	0,05
738,684	0,06
739,083	0,05
739,482	0,05
739,882	0,05
740,281	0,05
740,68	0,06
741,079	0,06
741,478	0,05
741,877	0,06
742,276	0,06
742,675	0,05
743,074	0,06
743,473	0,06
743,871	0,06
744,27	0,05
744,668	0,05
745,067	0,06
745,465	0,06
745,864	0,06
746,262	0,06
746,66	0,06
747,059	0,06
747,457	0,05
747,855	0,06
748,253	0,06
748,651	0,06
749,049	0,06
749,447	0,05
749,844	0,06
750,242	0,06
750,64	0,06
751,037	0,06
751,435	0,06
751,832	0,05
752,23	0,05
752,627	0,06
753,024	0,06
753,422	0,06
753,819	0,05
754,216	0,05
754,613	0,06
755,01	0,05
755,407	0,05
755,804	0,06
756,201	0,06
756,597	0,06
756,994	0,05
757,391	0,05
757,787	0,05
758,184	0,06
758,58	0,05
758,977	0,05
759,373	0,05
759,769	0,05
760,166	0,05
760,562	0,06
760,958	0,05
761,354	0,05
761,75	0,05
762,146	0,05
762,542	0,05
762,937	0,05
763,333	0,06
763,729	0,05
764,124	0,06
764,52	0,06
764,915	0,06
765,311	0,05
765,706	0,06
766,101	0,05
766,497	0,06
766,892	0,05
767,287	0,06
767,682	0,06
768,077	0,05
768,472	0,06
768,867	0,06
769,262	0,05
769,657	0,06
770,051	0,06
770,446	0,05
770,84	0,06
771,235	0,06
771,629	0,05
772,024	0,06
772,418	0,06
772,812	0,06
773,207	0,06
773,601	0,06
773,995	0,06
774,389	0,06
774,783	0,06
775,177	0,06
775,571	0,06
775,964	0,06
776,358	0,06
776,752	0,06
777,145	0,06
777,539	0,06
777,932	0,06
778,326	0,06
778,719	0,06
779,113	0,06
779,506	0,06
779,899	0,06
780,292	0,06
780,685	0,06
781,078	0,06
781,471	0,06
781,864	0,06
782,257	0,06
782,65	0,06
783,042	0,06
783,435	0,06
783,827	0,06
784,22	0,06
784,612	0,06
785,005	0,06
785,397	0,06
785,789	0,06
786,182	0,06
786,574	0,06
786,966	0,06
787,358	0,06
787,75	0,06
788,142	0,06
788,534	0,06
788,925	0,06
789,317	0,06
789,709	0,06
790,1	0,06
790,492	0,06
790,883	0,06
791,275	0,06
791,666	0,06
792,057	0,06
792,449	0,06
792,84	0,06
793,231	0,06
793,622	0,06
794,013	0,06
794,404	0,06
794,795	0,06
795,185	0,06
795,576	0,06
795,967	0,06
796,357	0,06
796,748	0,06
797,138	0,06
797,529	0,06
797,919	0,06
798,31	0,06
798,7	0,06
799,09	0,06
799,48	0,06
799,87	0,06
800,26	0,06
800,65	0,06
801,04	0,06
801,43	0,06
801,82	0,06
802,209	0,06
802,599	0,06
802,988	0,06
803,378	0,06
803,767	0,06
804,157	0,06
804,546	0,06
804,935	0,06
805,325	0,06
805,714	0,06
806,103	0,06
806,492	0,06
806,881	0,06
807,27	0,06
807,658	0,06
808,047	0,06
808,436	0,06
808,824	0,06
809,213	0,06
809,602	0,06
809,99	0,06
810,378	0,06
810,767	0,06
811,155	0,06
811,543	0,06
811,931	0,06
812,319	0,06
812,708	0,06
813,095	0,06
813,483	0,06
813,871	0,06
814,259	0,06
814,647	0,06
815,034	0,06
815,422	0,06
815,809	0,06
816,197	0,07
816,584	0,06
816,972	0,06
817,359	0,06
817,746	0,06
818,133	0,06
818,52	0,06
818,907	0,06
819,294	0,07
819,681	0,06
820,068	0,06
820,455	0,06
820,842	0,06
821,228	0,06
821,615	0,06
822,002	0,07
822,388	0,06
822,774	0,06
823,161	0,06
823,547	0,06
823,933	0,06
824,319	0,06
824,706	0,06
825,092	0,06
825,478	0,07
825,863	0,06
826,249	0,07
826,635	0,06
827,021	0,06
827,407	0,06
827,792	0,06
828,178	0,06
828,563	0,06
828,949	0,06
829,334	0,06
829,719	0,06
830,104	0,06
830,49	0,07
830,875	0,06
831,26	0,07
831,645	0,07
832,03	0,06
832,415	0,06
832,799	0,06
833,184	0,07
833,569	0,07
833,953	0,06
834,338	0,06
834,722	0,06
835,107	0,07
835,491	0,07
835,875	0,07
836,26	0,06
836,644	0,06
837,028	0,07
837,412	0,06
837,796	0,06
838,18	0,07
838,564	0,07
838,948	0,07
839,331	0,07
839,715	0,07
840,099	0,07
840,482	0,07
840,866	0,07
841,249	0,07
841,632	0,06
842,016	0,06
842,399	0,07
842,782	0,07
843,165	0,06
843,548	0,07
843,931	0,07
844,314	0,07
844,697	0,07
845,08	0,07
845,463	0,07
845,845	0,07
846,228	0,07
846,61	0,07
846,993	0,07
847,375	0,07
847,758	0,07
848,14	0,07
848,522	0,07
848,904	0,07
849,286	0,07
849,668	0,07
850,05	0,07
850,432	0,07
850,814	0,07
851,196	0,07
851,578	0,07
851,959	0,07
852,341	0,07
852,722	0,07
853,104	0,07
853,485	0,07
853,867	0,07
854,248	0,07
854,629	0,07
855,01	0,07
855,391	0,07
855,773	0,07
856,153	0,07
856,534	0,07
856,915	0,07
857,296	0,07
857,677	0,07
858,057	0,07
858,438	0,07
858,819	0,07
859,199	0,07
859,579	0,07
859,96	0,07
860,34	0,07
860,72	0,07
861,1	0,07
861,48	0,07
861,86	0,07
862,24	0,07
862,62	0,07
863	0,07
863,38	0,07
863,76	0,07
864,139	0,07
864,519	0,07
864,898	0,07
865,278	0,07
865,657	0,07
866,037	0,07
866,416	0,07
866,795	0,07
867,174	0,07
867,553	0,07
867,932	0,07
868,311	0,07
868,69	0,07
869,069	0,07
869,448	0,07
869,826	0,07
870,205	0,07
870,584	0,07
870,962	0,07
871,341	0,07
871,719	0,07
872,097	0,08
872,475	0,08
872,854	0,08
873,232	0,07
873,61	0,08
873,988	0,07
874,366	0,07
874,744	0,07
875,121	0,07
875,499	0,08
875,877	0,07
876,255	0,07
876,632	0,07
877,01	0,08
877,387	0,07
877,764	0,08
878,142	0,08
878,519	0,07
878,896	0,07
879,273	0,08
879,65	0,08
880,027	0,08
880,404	0,07
880,781	0,07
881,158	0,07
881,534	0,08
881,911	0,08
882,288	0,07
882,664	0,08
883,041	0,08
883,417	0,08
883,793	0,07
884,17	0,08
884,546	0,08
884,922	0,08
885,298	0,08
885,674	0,07
886,05	0,07
886,426	0,07
886,802	0,07
887,178	0,07
887,553	0,07
887,929	0,07
888,305	0,08
888,68	0,07
889,056	0,08
889,431	0,07
889,806	0,07
890,182	0,07
890,557	0,07
890,932	0,07
891,307	0,08
891,682	0,07
892,057	0,07
892,432	0,08
892,807	0,07
893,181	0,07
893,556	0,08
893,931	0,07
894,305	0,08
894,68	0,08
895,054	0,08
895,428	0,08
895,803	0,08
896,177	0,08
896,551	0,08
896,925	0,08
897,299	0,08
897,673	0,08
898,047	0,08
898,421	0,08
898,795	0,08
899,169	0,08
899,542	0,08
899,916	0,08
900,289	0,08
900,663	0,08
901,036	0,08
901,41	0,08
901,783	0,08
902,156	0,08
902,529	0,08
902,902	0,08
903,275	0,08
903,648	0,08
904,021	0,08
904,394	0,08
904,767	0,08
905,139	0,08
905,512	0,08
905,885	0,08
906,257	0,08
906,629	0,07
907,002	0,08
907,374	0,07
907,746	0,08
908,119	0,08
908,491	0,07
908,863	0,08
909,235	0,07
909,607	0,08
909,978	0,07
910,35	0,08
910,722	0,07
911,094	0,07
911,465	0,07
911,837	0,07
912,208	0,07
912,58	0,06
912,951	0,06
913,322	0,06
913,693	0,06
914,065	0,06
914,436	0,06
914,807	0,07
915,178	0,06
915,548	0,06
915,919	0,06
916,29	0,06
916,661	0,06
917,031	0,06
917,402	0,06
917,772	0,06
918,143	0,06
918,513	0,06
918,884	0,06
919,254	0,06
919,624	0,05
919,994	0,05
920,364	0,05
920,734	0,05
921,104	0,05
921,474	0,05
921,844	0,05
922,213	0,05
922,583	0,05
922,953	0,05
923,322	0,05
923,692	0,06
924,061	0,05
924,43	0,05
924,8	0,05
925,169	0,04
925,538	0,05
925,907	0,04
926,276	0,04
926,645	0,05
927,014	0,04
927,383	0,05
927,751	0,05
928,12	0,04
928,489	0,04
928,857	0,04
929,226	0,04
929,594	0,04
929,962	0,04
930,331	0,04
930,699	0,04
931,067	0,04
931,435	0,03
931,803	0,03
932,171	0,03
932,539	0,04
932,907	0,03
933,275	0,03
933,642	0,04
934,01	0,03
934,378	0,03
934,745	0,03
935,113	0,03
935,48	0,03
935,847	0,03
936,215	0,03
936,582	0,03
936,949	0,03
937,316	0,03
937,683	0,03
938,05	0,03
938,417	0,03
938,783	0,03
939,15	0,03
939,517	0,03
939,883	0,04
940,25	0,03
940,616	0,02
940,983	0,03
941,349	0,02
941,715	0,03
942,082	0,02
942,448	0,02
942,814	0,02
943,18	0,03
943,546	0,03
943,912	0,01
944,277	0,02
944,643	0,02
945,009	0,03
945,374	0,02
945,74	0,03
946,105	0,03
946,471	0,01
946,836	0,02
947,202	0,02
947,567	0,02
947,932	0,01
948,297	0,01
948,662	0,02
949,027	0,02
949,392	0,02
949,757	0,02
950,121	0,02
950,486	0,02
950,851	0
951,215	0,01
951,58	0,01
951,944	0,02
952,309	0,01
952,673	0,01
953,037	0,02
953,401	0,01
953,765	0,01
954,129	0
954,493	0,02
954,857	0,02
955,221	0,01
955,585	0,01
955,949	0,01
956,312	0
956,676	0,01
957,039	0,01
957,403	0,01
957,766	0
958,13	0,01
958,493	0,02
958,856	0,01
959,219	0,01
959,582	0,01
959,945	0,01
960,308	0,02
960,671	0,01
961,034	-0
961,396	0,02
961,759	0,01
962,122	0
962,484	0,01
962,847	0,01
963,209	0,01
963,571	0,01
963,934	0,02
964,296	-0
964,658	0,01
965,02	0,01
965,382	0,03
965,744	0,02
966,106	-0
966,468	0,01
966,829	0,01
967,191	0,02
967,553	-0,01
967,914	0,04
968,276	0,01
968,637	0,02
968,998	0,01
969,36	0,02
969,721	0,03
970,082	0,02
970,443	0,01
970,804	-0
971,165	0,01
971,526	-0
971,887	0,02
972,247	-0
972,608	0,02
972,969	0,01
973,329	0,03
973,69	-0
974,05	0,03
974,41	0,03
974,771	0,04
975,131	0
975,491	0,03
975,851	0,04
976,211	0,01
976,571	0,03
976,931	0,02
977,291	0,04
977,65	0,02
978,01	0,03
978,37	0,02
978,729	0,02
979,089	0,03
979,448	0,04
979,807	0
980,167	0,02
980,526	0,05
980,885	0,01
981,244	0,02
981,603	0,02
981,962	0,08
982,321	0,02
982,68	0,06
983,038	0,02
983,397	0,05
983,756	0,05
984,114	0,05
984,473	0,01
984,831	0,04
985,19	0,01
985,548	0,07
985,906	0,04
986,264	0,05
986,622	0,04
986,98	0,04
987,338	0,02
987,696	0,04
988,054	0,02
988,412	0,04
988,769	0,03
989,127	0,03
989,484	0,02
989,842	0,04
990,199	0,04
990,557	0,03
990,914	0,02
991,271	0,04
991,628	0,04
991,985	0,01
992,342	0,02
992,699	0,06
993,056	0,05
993,413	0,01
993,77	0,03
994,126	0,06
994,483	0,03
994,84	0,03
995,196	0,03
995,552	0,05
995,909	0,06
996,265	0,02
996,621	0,02
996,977	0,02
997,333	0,04
997,689	0,02
998,045	0,04
998,401	0,05
998,757	0,05
999,113	0,05
999,468	0,06
999,824	0,02
1000,18	0,03
1000,535	0,04
1000,89	0,09
1001,246	0,05
1001,601	0,04
1001,956	0,04
1002,311	0,01
1002,666	0,05
1003,021	0,03
1003,376	0,04
1003,731	0,1
1004,086	0,02
1004,441	0,01
1004,795	0,02
1005,15	0,06
1005,505	0,03
1005,859	0,04
1006,213	0,03
1006,568	0,01
1006,922	0,05
1007,276	0,02
1007,63	0,06
1007,984	0,09
1008,338	0,05
1008,692	0,01
1009,046	0,02
1009,4	0,07
1009,754	0,04
1010,107	-0
1010,461	0,03
1010,814	0,03
1011,168	0,02
1011,521	0,06
1011,874	0,03
1012,228	0,06
1012,581	-0
1012,934	0,05
1013,287	0,01
1013,64	0,02
1013,993	0,09
1014,346	0,03
1014,699	0
1015,051	0,07
1015,404	0,02
1015,756	0,05
1016,109	0,06
1016,461	0,05
1016,814	0,02
1017,166	0,01
1017,518	0,04
1017,87	0,05
1018,223	0,02
1018,575	0,13
1018,927	0,06
1019,278	0,05
1019,63	0,01
1019,982	0,07
1020,334	0,07
1020,685	0,07
1021,037	0,1
1021,388	0
1021,74	0,06
1022,091	0,04
1022,442	0,05
1022,794	0,05
1023,145	0
1023,496	0,04
1023,847	0,06
1024,198	0,05
1024,549	0,04
1024,9	0,12
1025,25	0,08
1025,601	0,06
1025,952	0,12
1026,302	0,06
1026,653	0,07
1027,003	0,04
1027,353	0,05
1027,704	0,09
1028,054	0,06
1028,404	0,1
1028,754	0,08
1029,104	0,04
1029,454	0,06
1029,804	0
1030,154	0,04
1030,503	0,04
1030,853	0,04
