Data from Absorbance__13__15-04-14-034.txt Node

Date: Wed May 05 15:04:14 CEST 2021
User: thoma
Spectrometer: FLMS06037
Trigger mode: 0
Integration Time (sec): 1,451500E-1
Scans to average: 10
Electric dark correction enabled: true
Nonlinearity correction enabled: false
Boxcar width: 0
XAxis mode: Wavelengths
Number of Pixels in Spectrum: 2048
>>>>>Begin Spectral Data<<<<<
187,642	-0
188,109	-0
188,576	-0
189,043	-0
189,51	-0,38
189,976	-0,16
190,443	-0,43
190,91	0,31
191,376	0,34
191,843	-0,22
192,309	-0
192,776	-0
193,242	-0,25
193,708	-0
194,175	0,14
194,641	0,03
195,107	-0
195,573	0,09
196,039	-0,02
196,505	-0,51
196,971	-0
197,437	-0,39
197,903	-0
198,369	0,04
198,835	0,05
199,301	0,06
199,766	0,06
200,232	0,05
200,698	0,04
201,163	0,06
201,629	0,07
202,094	0,06
202,56	0,06
203,025	0,06
203,49	0,07
203,956	0,07
204,421	0,08
204,886	0,09
205,351	0,09
205,816	0,08
206,281	0,07
206,746	0,1
207,211	0,09
207,676	0,08
208,141	0,09
208,606	0,1
209,071	0,1
209,536	0,12
210	0,12
210,465	0,13
210,929	0,15
211,394	0,16
211,859	0,18
212,323	0,2
212,787	0,22
213,252	0,25
213,716	0,27
214,18	0,3
214,645	0,35
215,109	0,39
215,573	0,42
216,037	0,47
216,501	0,51
216,965	0,56
217,429	0,63
217,893	0,67
218,357	0,74
218,82	0,78
219,284	0,82
219,748	0,9
220,211	0,94
220,675	1
221,139	1,05
221,602	1,08
222,066	1,13
222,529	1,14
222,992	1,19
223,456	1,22
223,919	1,25
224,382	1,31
224,845	1,32
225,308	1,35
225,772	1,36
226,235	1,38
226,698	1,4
227,16	1,42
227,623	1,42
228,086	1,43
228,549	1,43
229,012	1,45
229,474	1,46
229,937	1,48
230,4	1,48
230,862	1,48
231,325	1,49
231,787	1,49
232,25	1,48
232,712	1,49
233,174	1,48
233,637	1,5
234,099	1,47
234,561	1,47
235,023	1,48
235,485	1,47
235,947	1,49
236,409	1,48
236,871	1,48
237,333	1,51
237,795	1,48
238,257	1,49
238,718	1,48
239,18	1,49
239,642	1,48
240,103	1,47
240,565	1,48
241,026	1,5
241,488	1,47
241,949	1,47
242,411	1,49
242,872	1,48
243,333	1,46
243,795	1,46
244,256	1,46
244,717	1,46
245,178	1,45
245,639	1,47
246,1	1,44
246,561	1,47
247,022	1,48
247,483	1,48
247,943	1,49
248,404	1,5
248,865	1,49
249,325	1,5
249,786	1,51
250,247	1,51
250,707	1,52
251,168	1,5
251,628	1,53
252,088	1,53
252,549	1,54
253,009	1,52
253,469	1,53
253,929	1,53
254,389	1,53
254,849	1,53
255,309	1,54
255,769	1,54
256,229	1,55
256,689	1,56
257,149	1,56
257,609	1,59
258,069	1,57
258,528	1,58
258,988	1,61
259,448	1,59
259,907	1,59
260,367	1,6
260,826	1,6
261,285	1,59
261,745	1,6
262,204	1,61
262,663	1,6
263,122	1,6
263,582	1,59
264,041	1,62
264,5	1,61
264,959	1,62
265,418	1,61
265,877	1,59
266,336	1,6
266,794	1,6
267,253	1,6
267,712	1,63
268,171	1,59
268,629	1,58
269,088	1,61
269,546	1,6
270,005	1,62
270,463	1,61
270,922	1,59
271,38	1,6
271,838	1,6
272,296	1,6
272,755	1,61
273,213	1,61
273,671	1,6
274,129	1,59
274,587	1,59
275,045	1,6
275,503	1,58
275,961	1,59
276,418	1,6
276,876	1,6
277,334	1,61
277,791	1,59
278,249	1,6
278,707	1,61
279,164	1,61
279,622	1,58
280,079	1,6
280,536	1,61
280,994	1,6
281,451	1,59
281,908	1,59
282,365	1,59
282,822	1,59
283,28	1,59
283,737	1,62
284,193	1,59
284,65	1,58
285,107	1,59
285,564	1,6
286,021	1,59
286,478	1,59
286,934	1,58
287,391	1,59
287,848	1,58
288,304	1,6
288,761	1,57
289,217	1,59
289,673	1,59
290,13	1,6
290,586	1,59
291,042	1,58
291,498	1,57
291,955	1,56
292,411	1,58
292,867	1,57
293,323	1,57
293,779	1,57
294,235	1,56
294,69	1,57
295,146	1,56
295,602	1,56
296,058	1,53
296,513	1,56
296,969	1,55
297,424	1,54
297,88	1,53
298,335	1,53
298,791	1,54
299,246	1,52
299,701	1,51
300,157	1,51
300,612	1,51
301,067	1,51
301,522	1,51
301,977	1,49
302,432	1,5
302,887	1,52
303,342	1,5
303,797	1,48
304,252	1,5
304,707	1,49
305,161	1,49
305,616	1,49
306,071	1,5
306,525	1,48
306,98	1,47
307,434	1,47
307,889	1,46
308,343	1,45
308,797	1,44
309,252	1,44
309,706	1,45
310,16	1,45
310,614	1,45
311,068	1,43
311,522	1,43
311,976	1,42
312,43	1,4
312,884	1,42
313,338	1,39
313,792	1,38
314,245	1,39
314,699	1,39
315,153	1,37
315,606	1,38
316,06	1,37
316,513	1,37
316,967	1,35
317,42	1,36
317,873	1,34
318,327	1,35
318,78	1,34
319,233	1,35
319,686	1,34
320,139	1,33
320,592	1,32
321,045	1,32
321,498	1,33
321,951	1,32
322,404	1,31
322,857	1,31
323,31	1,31
323,762	1,29
324,215	1,28
324,667	1,26
325,12	1,23
325,573	1,25
326,025	1,23
326,477	1,24
326,93	1,25
327,382	1,26
327,834	1,28
328,286	1,27
328,739	1,28
329,191	1,26
329,643	1,26
330,095	1,25
330,547	1,24
330,999	1,22
331,45	1,22
331,902	1,22
332,354	1,19
332,806	1,19
333,257	1,18
333,709	1,19
334,16	1,18
334,612	1,19
335,063	1,18
335,515	1,17
335,966	1,18
336,417	1,18
336,869	1,17
337,32	1,17
337,771	1,16
338,222	1,14
338,673	1,12
339,124	1,11
339,575	1,1
340,026	1,1
340,477	1,1
340,928	1,1
341,378	1,09
341,829	1,08
342,28	1,08
342,73	1,08
343,181	1,08
343,631	1,07
344,082	1,07
344,532	1,06
344,982	1,06
345,433	1,07
345,883	1,06
346,333	1,05
346,783	1,06
347,233	1,05
347,683	1,05
348,133	1,03
348,583	1,03
349,033	1,03
349,483	1,03
349,933	1,02
350,383	1,03
350,832	1,01
351,282	1,01
351,732	1,01
352,181	1,01
352,631	1
353,08	1
353,529	1
353,979	0,99
354,428	0,98
354,877	0,98
355,327	0,98
355,776	0,98
356,225	0,97
356,674	0,97
357,123	0,96
357,572	0,96
358,021	0,96
358,469	0,94
358,918	0,94
359,367	0,94
359,816	0,94
360,264	0,93
360,713	0,93
361,161	0,93
361,61	0,91
362,058	0,92
362,507	0,91
362,955	0,91
363,403	0,9
363,852	0,9
364,3	0,9
364,748	0,89
365,196	0,89
365,644	0,88
366,092	0,88
366,54	0,87
366,988	0,87
367,436	0,86
367,883	0,86
368,331	0,85
368,779	0,85
369,226	0,85
369,674	0,84
370,121	0,83
370,569	0,84
371,016	0,83
371,464	0,82
371,911	0,81
372,358	0,81
372,805	0,81
373,253	0,8
373,7	0,8
374,147	0,79
374,594	0,79
375,041	0,78
375,488	0,77
375,935	0,76
376,381	0,76
376,828	0,75
377,275	0,75
377,721	0,74
378,168	0,73
378,615	0,72
379,061	0,72
379,508	0,72
379,954	0,7
380,4	0,7
380,847	0,69
381,293	0,68
381,739	0,68
382,185	0,66
382,631	0,66
383,077	0,65
383,523	0,64
383,969	0,64
384,415	0,63
384,861	0,62
385,307	0,61
385,752	0,6
386,198	0,59
386,644	0,59
387,089	0,58
387,535	0,58
387,98	0,56
388,426	0,57
388,871	0,56
389,317	0,55
389,762	0,54
390,207	0,54
390,652	0,53
391,097	0,52
391,542	0,52
391,987	0,51
392,432	0,5
392,877	0,5
393,322	0,5
393,767	0,49
394,212	0,49
394,656	0,48
395,101	0,47
395,546	0,47
395,99	0,46
396,435	0,46
396,879	0,45
397,324	0,45
397,768	0,44
398,212	0,44
398,657	0,44
399,101	0,44
399,545	0,43
399,989	0,43
400,433	0,42
400,877	0,42
401,321	0,41
401,765	0,41
402,209	0,4
402,653	0,4
403,096	0,4
403,54	0,4
403,984	0,4
404,427	0,39
404,871	0,38
405,314	0,38
405,758	0,38
406,201	0,38
406,644	0,37
407,088	0,38
407,531	0,37
407,974	0,37
408,417	0,36
408,86	0,36
409,303	0,36
409,746	0,35
410,189	0,35
410,632	0,35
411,075	0,34
411,517	0,34
411,96	0,34
412,403	0,34
412,845	0,33
413,288	0,33
413,73	0,33
414,173	0,33
414,615	0,32
415,058	0,32
415,5	0,31
415,942	0,31
416,384	0,31
416,826	0,31
417,268	0,31
417,711	0,31
418,152	0,3
418,594	0,3
419,036	0,3
419,478	0,29
419,92	0,29
420,362	0,29
420,803	0,29
421,245	0,29
421,686	0,29
422,128	0,28
422,569	0,28
423,011	0,28
423,452	0,28
423,893	0,27
424,335	0,27
424,776	0,27
425,217	0,27
425,658	0,27
426,099	0,26
426,54	0,26
426,981	0,26
427,422	0,26
427,863	0,26
428,304	0,25
428,744	0,25
429,185	0,25
429,626	0,25
430,066	0,25
430,507	0,25
430,947	0,24
431,388	0,24
431,828	0,24
432,268	0,24
432,709	0,24
433,149	0,24
433,589	0,23
434,029	0,23
434,469	0,23
434,909	0,23
435,349	0,23
435,789	0,22
436,229	0,22
436,669	0,22
437,108	0,22
437,548	0,22
437,988	0,22
438,427	0,21
438,867	0,21
439,306	0,21
439,746	0,21
440,185	0,21
440,624	0,2
441,064	0,2
441,503	0,2
441,942	0,2
442,381	0,2
442,82	0,2
443,259	0,2
443,698	0,2
444,137	0,2
444,576	0,19
445,015	0,19
445,453	0,19
445,892	0,19
446,331	0,19
446,769	0,19
447,208	0,19
447,646	0,19
448,085	0,18
448,523	0,18
448,961	0,18
449,4	0,18
449,838	0,17
450,276	0,18
450,714	0,18
451,152	0,18
451,59	0,18
452,028	0,17
452,466	0,17
452,904	0,17
453,342	0,17
453,779	0,17
454,217	0,16
454,655	0,17
455,092	0,16
455,53	0,17
455,967	0,16
456,405	0,16
456,842	0,16
457,279	0,16
457,717	0,16
458,154	0,15
458,591	0,16
459,028	0,16
459,465	0,16
459,902	0,15
460,339	0,15
460,776	0,15
461,213	0,15
461,65	0,15
462,086	0,15
462,523	0,15
462,96	0,15
463,396	0,15
463,833	0,14
464,269	0,14
464,706	0,14
465,142	0,14
465,578	0,15
466,015	0,14
466,451	0,14
466,887	0,14
467,323	0,14
467,759	0,14
468,195	0,14
468,631	0,14
469,067	0,14
469,503	0,13
469,939	0,13
470,374	0,14
470,81	0,14
471,246	0,13
471,681	0,13
472,117	0,13
472,552	0,13
472,988	0,13
473,423	0,13
473,858	0,13
474,294	0,13
474,729	0,13
475,164	0,13
475,599	0,13
476,034	0,13
476,469	0,13
476,904	0,13
477,339	0,13
477,774	0,13
478,208	0,12
478,643	0,12
479,078	0,13
479,512	0,13
479,947	0,12
480,381	0,12
480,816	0,13
481,25	0,12
481,685	0,12
482,119	0,12
482,553	0,12
482,987	0,12
483,421	0,12
483,856	0,12
484,29	0,12
484,724	0,12
485,157	0,12
485,591	0,12
486,025	0,12
486,459	0,12
486,893	0,12
487,326	0,11
487,76	0,11
488,193	0,11
488,627	0,11
489,06	0,11
489,494	0,11
489,927	0,11
490,36	0,11
490,794	0,11
491,227	0,11
491,66	0,11
492,093	0,11
492,526	0,11
492,959	0,11
493,392	0,11
493,825	0,11
494,257	0,11
494,69	0,11
495,123	0,1
495,555	0,11
495,988	0,11
496,421	0,11
496,853	0,1
497,285	0,11
497,718	0,1
498,15	0,1
498,582	0,1
499,015	0,1
499,447	0,1
499,879	0,1
500,311	0,1
500,743	0,1
501,175	0,1
501,607	0,1
502,038	0,1
502,47	0,1
502,902	0,1
503,334	0,1
503,765	0,1
504,197	0,1
504,628	0,1
505,06	0,1
505,491	0,1
505,922	0,1
506,354	0,1
506,785	0,1
507,216	0,1
507,647	0,1
508,078	0,1
508,509	0,1
508,94	0,1
509,371	0,1
509,802	0,1
510,233	0,1
510,664	0,1
511,094	0,1
511,525	0,1
511,955	0,1
512,386	0,1
512,816	0,1
513,247	0,1
513,677	0,1
514,108	0,1
514,538	0,09
514,968	0,09
515,398	0,09
515,828	0,1
516,258	0,09
516,688	0,1
517,118	0,09
517,548	0,1
517,978	0,1
518,408	0,09
518,837	0,09
519,267	0,09
519,697	0,09
520,126	0,09
520,556	0,09
520,985	0,09
521,415	0,09
521,844	0,09
522,273	0,09
522,702	0,09
523,132	0,09
523,561	0,09
523,99	0,09
524,419	0,09
524,848	0,09
525,277	0,09
525,705	0,09
526,134	0,09
526,563	0,09
526,992	0,09
527,42	0,09
527,849	0,09
528,277	0,09
528,706	0,09
529,134	0,09
529,563	0,09
529,991	0,09
530,419	0,09
530,847	0,09
531,275	0,09
531,703	0,09
532,131	0,09
532,559	0,09
532,987	0,09
533,415	0,09
533,843	0,09
534,271	0,09
534,698	0,09
535,126	0,09
535,554	0,09
535,981	0,09
536,409	0,09
536,836	0,09
537,264	0,08
537,691	0,08
538,118	0,09
538,545	0,09
538,972	0,09
539,4	0,09
539,827	0,08
540,254	0,08
540,681	0,09
541,107	0,09
541,534	0,09
541,961	0,08
542,388	0,08
542,814	0,08
543,241	0,08
543,667	0,08
544,094	0,08
544,52	0,08
544,947	0,08
545,373	0,08
545,799	0,08
546,226	0,08
546,652	0,08
547,078	0,08
547,504	0,08
547,93	0,08
548,356	0,08
548,782	0,08
549,208	0,08
549,633	0,08
550,059	0,08
550,485	0,08
550,91	0,08
551,336	0,08
551,761	0,08
552,187	0,08
552,612	0,08
553,038	0,08
553,463	0,08
553,888	0,08
554,313	0,08
554,738	0,08
555,163	0,08
555,588	0,08
556,013	0,08
556,438	0,08
556,863	0,08
557,288	0,08
557,713	0,08
558,137	0,08
558,562	0,08
558,986	0,08
559,411	0,08
559,835	0,08
560,26	0,08
560,684	0,08
561,108	0,08
561,533	0,08
561,957	0,08
562,381	0,08
562,805	0,08
563,229	0,08
563,653	0,08
564,077	0,08
564,501	0,08
564,925	0,08
565,348	0,08
565,772	0,08
566,196	0,08
566,619	0,08
567,043	0,07
567,466	0,08
567,89	0,08
568,313	0,08
568,736	0,08
569,159	0,08
569,583	0,08
570,006	0,07
570,429	0,07
570,852	0,07
571,275	0,07
571,698	0,07
572,12	0,07
572,543	0,07
572,966	0,07
573,389	0,07
573,811	0,07
574,234	0,07
574,656	0,07
575,079	0,07
575,501	0,07
575,924	0,07
576,346	0,07
576,768	0,07
577,19	0,07
577,612	0,06
578,034	0,07
578,456	0,07
578,878	0,06
579,3	0,07
579,722	0,06
580,144	0,06
580,566	0,06
580,987	0,06
581,409	0,06
581,83	0,06
582,252	0,06
582,673	0,06
583,095	0,06
583,516	0,06
583,937	0,06
584,359	0,06
584,78	0,06
585,201	0,06
585,622	0,06
586,043	0,06
586,464	0,06
586,885	0,06
587,306	0,06
587,726	0,06
588,147	0,06
588,568	0,06
588,988	0,06
589,409	0,06
589,83	0,06
590,25	0,06
590,67	0,06
591,091	0,06
591,511	0,06
591,931	0,06
592,351	0,06
592,771	0,06
593,192	0,06
593,612	0,06
594,031	0,06
594,451	0,06
594,871	0,06
595,291	0,06
595,711	0,06
596,13	0,06
596,55	0,06
596,969	0,06
597,389	0,06
597,808	0,06
598,228	0,06
598,647	0,06
599,066	0,06
599,486	0,06
599,905	0,06
600,324	0,06
600,743	0,05
601,162	0,05
601,581	0,05
602	0,05
602,418	0,05
602,837	0,06
603,256	0,06
603,674	0,06
604,093	0,06
604,512	0,06
604,93	0,06
605,349	0,06
605,767	0,06
606,185	0,06
606,603	0,05
607,022	0,06
607,44	0,06
607,858	0,06
608,276	0,05
608,694	0,05
609,112	0,05
609,53	0,05
609,947	0,06
610,365	0,06
610,783	0,06
611,2	0,06
611,618	0,06
612,036	0,06
612,453	0,06
612,87	0,06
613,288	0,06
613,705	0,06
614,122	0,06
614,539	0,06
614,957	0,06
615,374	0,06
615,791	0,06
616,208	0,06
616,624	0,06
617,041	0,06
617,458	0,06
617,875	0,06
618,291	0,06
618,708	0,06
619,125	0,06
619,541	0,06
619,958	0,06
620,374	0,06
620,79	0,06
621,206	0,06
621,623	0,06
622,039	0,06
622,455	0,06
622,871	0,06
623,287	0,06
623,703	0,06
624,119	0,06
624,535	0,06
624,95	0,06
625,366	0,06
625,782	0,06
626,197	0,06
626,613	0,06
627,028	0,06
627,444	0,06
627,859	0,06
628,274	0,06
628,69	0,06
629,105	0,06
629,52	0,06
629,935	0,06
630,35	0,06
630,765	0,06
631,18	0,06
631,595	0,06
632,009	0,06
632,424	0,06
632,839	0,06
633,253	0,06
633,668	0,06
634,082	0,06
634,497	0,06
634,911	0,06
635,326	0,06
635,74	0,06
636,154	0,06
636,568	0,06
636,982	0,06
637,396	0,06
637,81	0,06
638,224	0,06
638,638	0,06
639,052	0,06
639,466	0,06
639,879	0,06
640,293	0,06
640,707	0,06
641,12	0,06
641,534	0,06
641,947	0,06
642,36	0,06
642,774	0,06
643,187	0,06
643,6	0,06
644,013	0,06
644,426	0,06
644,839	0,06
645,252	0,06
645,665	0,06
646,078	0,06
646,491	0,06
646,904	0,06
647,316	0,06
647,729	0,06
648,141	0,06
648,554	0,06
648,966	0,06
649,379	0,06
649,791	0,06
650,203	0,06
650,615	0,06
651,028	0,06
651,44	0,06
651,852	0,06
652,264	0,06
652,676	0,06
653,087	0,06
653,499	0,06
653,911	0,06
654,323	0,06
654,734	0,06
655,146	0,06
655,557	0,06
655,969	0,06
656,38	0,06
656,792	0,06
657,203	0,05
657,614	0,05
658,025	0,05
658,436	0,05
658,847	0,05
659,258	0,05
659,669	0,06
660,08	0,06
660,491	0,06
660,902	0,06
661,312	0,06
661,723	0,06
662,134	0,06
662,544	0,06
662,955	0,06
663,365	0,06
663,775	0,06
664,186	0,06
664,596	0,06
665,006	0,06
665,416	0,06
665,826	0,06
666,236	0,06
666,646	0,06
667,056	0,06
667,466	0,06
667,876	0,06
668,286	0,06
668,695	0,06
669,105	0,06
669,514	0,06
669,924	0,06
670,333	0,06
670,743	0,06
671,152	0,06
671,561	0,06
671,97	0,06
672,38	0,06
672,789	0,05
673,198	0,06
673,607	0,06
674,016	0,05
674,424	0,06
674,833	0,06
675,242	0,06
675,651	0,05
676,059	0,06
676,468	0,06
676,876	0,06
677,285	0,06
677,693	0,06
678,101	0,06
678,51	0,06
678,918	0,05
679,326	0,06
679,734	0,06
680,142	0,05
680,55	0,06
680,958	0,05
681,366	0,05
681,774	0,06
682,181	0,05
682,589	0,06
682,997	0,05
683,404	0,05
683,812	0,06
684,219	0,05
684,627	0,05
685,034	0,05
685,441	0,05
685,848	0,05
686,256	0,05
686,663	0,05
687,07	0,05
687,477	0,05
687,884	0,05
688,29	0,05
688,697	0,06
689,104	0,05
689,511	0,05
689,917	0,05
690,324	0,06
690,73	0,06
691,137	0,05
691,543	0,05
691,95	0,05
692,356	0,05
692,762	0,05
693,168	0,05
693,574	0,05
693,98	0,05
694,386	0,05
694,792	0,05
695,198	0,05
695,604	0,05
696,01	0,05
696,415	0,05
696,821	0,05
697,227	0,05
697,632	0,05
698,038	0,05
698,443	0,05
698,848	0,05
699,254	0,05
699,659	0,05
700,064	0,05
700,469	0,05
700,874	0,05
701,279	0,05
701,684	0,05
702,089	0,05
702,494	0,05
702,898	0,05
703,303	0,05
703,708	0,05
704,112	0,05
704,517	0,05
704,921	0,05
705,326	0,05
705,73	0,05
706,134	0,05
706,538	0,05
706,943	0,05
707,347	0,05
707,751	0,05
708,155	0,05
708,559	0,05
708,963	0,05
709,366	0,05
709,77	0,05
710,174	0,05
710,577	0,05
710,981	0,05
711,384	0,05
711,788	0,05
712,191	0,05
712,595	0,05
712,998	0,05
713,401	0,05
713,804	0,05
714,207	0,05
714,61	0,05
715,013	0,05
715,416	0,05
715,819	0,05
716,222	0,05
716,625	0,05
717,027	0,04
717,43	0,05
717,833	0,04
718,235	0,05
718,638	0,05
719,04	0,04
719,442	0,05
719,844	0,04
720,247	0,04
720,649	0,04
721,051	0,05
721,453	0,04
721,855	0,05
722,257	0,05
722,659	0,04
723,06	0,05
723,462	0,04
723,864	0,04
724,265	0,04
724,667	0,04
725,069	0,05
725,47	0,05
725,871	0,04
726,273	0,04
726,674	0,04
727,075	0,04
727,476	0,04
727,877	0,04
728,278	0,04
728,679	0,04
729,08	0,04
729,481	0,04
729,882	0,04
730,282	0,04
730,683	0,04
731,084	0,04
731,484	0,04
731,885	0,04
732,285	0,04
732,686	0,04
733,086	0,04
733,486	0,04
733,886	0,04
734,286	0,04
734,686	0,04
735,086	0,04
735,486	0,04
735,886	0,04
736,286	0,04
736,686	0,04
737,086	0,04
737,485	0,04
737,885	0,04
738,284	0,04
738,684	0,04
739,083	0,04
739,482	0,04
739,882	0,04
740,281	0,04
740,68	0,04
741,079	0,04
741,478	0,04
741,877	0,04
742,276	0,04
742,675	0,04
743,074	0,04
743,473	0,04
743,871	0,04
744,27	0,04
744,668	0,04
745,067	0,04
745,465	0,04
745,864	0,04
746,262	0,04
746,66	0,04
747,059	0,04
747,457	0,04
747,855	0,03
748,253	0,04
748,651	0,04
749,049	0,04
749,447	0,04
749,844	0,04
750,242	0,04
750,64	0,04
751,037	0,03
751,435	0,04
751,832	0,03
752,23	0,03
752,627	0,04
753,024	0,04
753,422	0,04
753,819	0,03
754,216	0,03
754,613	0,03
755,01	0,03
755,407	0,03
755,804	0,03
756,201	0,03
756,597	0,03
756,994	0,03
757,391	0,03
757,787	0,03
758,184	0,03
758,58	0,03
758,977	0,03
759,373	0,03
759,769	0,03
760,166	0,03
760,562	0,03
760,958	0,03
761,354	0,03
761,75	0,03
762,146	0,03
762,542	0,03
762,937	0,03
763,333	0,03
763,729	0,03
764,124	0,03
764,52	0,03
764,915	0,03
765,311	0,03
765,706	0,03
766,101	0,03
766,497	0,03
766,892	0,03
767,287	0,03
767,682	0,03
768,077	0,03
768,472	0,03
768,867	0,03
769,262	0,03
769,657	0,03
770,051	0,03
770,446	0,03
770,84	0,03
771,235	0,03
771,629	0,03
772,024	0,03
772,418	0,03
772,812	0,03
773,207	0,03
773,601	0,03
773,995	0,03
774,389	0,03
774,783	0,03
775,177	0,03
775,571	0,03
775,964	0,03
776,358	0,03
776,752	0,03
777,145	0,03
777,539	0,03
777,932	0,03
778,326	0,03
778,719	0,03
779,113	0,03
779,506	0,03
779,899	0,03
780,292	0,03
780,685	0,03
781,078	0,03
781,471	0,03
781,864	0,03
782,257	0,03
782,65	0,03
783,042	0,03
783,435	0,03
783,827	0,03
784,22	0,03
784,612	0,03
785,005	0,03
785,397	0,03
785,789	0,03
786,182	0,03
786,574	0,03
786,966	0,03
787,358	0,03
787,75	0,03
788,142	0,03
788,534	0,03
788,925	0,03
789,317	0,03
789,709	0,03
790,1	0,02
790,492	0,03
790,883	0,03
791,275	0,03
791,666	0,02
792,057	0,03
792,449	0,03
792,84	0,03
793,231	0,03
793,622	0,03
794,013	0,03
794,404	0,03
794,795	0,03
795,185	0,03
795,576	0,03
795,967	0,03
796,357	0,03
796,748	0,03
797,138	0,03
797,529	0,03
797,919	0,03
798,31	0,03
798,7	0,03
799,09	0,03
799,48	0,03
799,87	0,03
800,26	0,03
800,65	0,03
801,04	0,03
801,43	0,02
801,82	0,03
802,209	0,03
802,599	0,03
802,988	0,03
803,378	0,02
803,767	0,03
804,157	0,03
804,546	0,02
804,935	0,03
805,325	0,03
805,714	0,03
806,103	0,03
806,492	0,03
806,881	0,02
807,27	0,03
807,658	0,03
808,047	0,02
808,436	0,02
808,824	0,02
809,213	0,02
809,602	0,02
809,99	0,03
810,378	0,02
810,767	0,02
811,155	0,03
811,543	0,03
811,931	0,03
812,319	0,02
812,708	0,03
813,095	0,03
813,483	0,03
813,871	0,03
814,259	0,03
814,647	0,03
815,034	0,02
815,422	0,03
815,809	0,02
816,197	0,03
816,584	0,03
816,972	0,03
817,359	0,03
817,746	0,03
818,133	0,02
818,52	0,02
818,907	0,02
819,294	0,03
819,681	0,02
820,068	0,03
820,455	0,02
820,842	0,03
821,228	0,03
821,615	0,02
822,002	0,02
822,388	0,02
822,774	0,03
823,161	0,02
823,547	0,03
823,933	0,02
824,319	0,02
824,706	0,02
825,092	0,02
825,478	0,03
825,863	0,02
826,249	0,02
826,635	0,02
827,021	0,02
827,407	0,02
827,792	0,03
828,178	0,02
828,563	0,02
828,949	0,02
829,334	0,02
829,719	0,02
830,104	0,02
830,49	0,02
830,875	0,02
831,26	0,02
831,645	0,02
832,03	0,02
832,415	0,02
832,799	0,02
833,184	0,02
833,569	0,02
833,953	0,02
834,338	0,02
834,722	0,02
835,107	0,02
835,491	0,02
835,875	0,02
836,26	0,02
836,644	0,02
837,028	0,02
837,412	0,02
837,796	0,02
838,18	0,02
838,564	0,02
838,948	0,02
839,331	0,02
839,715	0,02
840,099	0,02
840,482	0,02
840,866	0,02
841,249	0,02
841,632	0,02
842,016	0,02
842,399	0,02
842,782	0,02
843,165	0,02
843,548	0,02
843,931	0,02
844,314	0,02
844,697	0,02
845,08	0,02
845,463	0,02
845,845	0,02
846,228	0,02
846,61	0,02
846,993	0,02
847,375	0,02
847,758	0,02
848,14	0,02
848,522	0,02
848,904	0,02
849,286	0,02
849,668	0,02
850,05	0,02
850,432	0,02
850,814	0,02
851,196	0,02
851,578	0,02
851,959	0,02
852,341	0,02
852,722	0,02
853,104	0,02
853,485	0,02
853,867	0,02
854,248	0,02
854,629	0,02
855,01	0,02
855,391	0,02
855,773	0,02
856,153	0,02
856,534	0,02
856,915	0,02
857,296	0,02
857,677	0,02
858,057	0,02
858,438	0,02
858,819	0,02
859,199	0,02
859,579	0,02
859,96	0,02
860,34	0,02
860,72	0,02
861,1	0,02
861,48	0,02
861,86	0,02
862,24	0,02
862,62	0,02
863	0,02
863,38	0,02
863,76	0,02
864,139	0,02
864,519	0,02
864,898	0,02
865,278	0,02
865,657	0,02
866,037	0,02
866,416	0,02
866,795	0,02
867,174	0,02
867,553	0,02
867,932	0,02
868,311	0,02
868,69	0,02
869,069	0,02
869,448	0,02
869,826	0,02
870,205	0,02
870,584	0,02
870,962	0,02
871,341	0,02
871,719	0,02
872,097	0,02
872,475	0,02
872,854	0,02
873,232	0,02
873,61	0,02
873,988	0,02
874,366	0,02
874,744	0,02
875,121	0,02
875,499	0,02
875,877	0,02
876,255	0,02
876,632	0,02
877,01	0,02
877,387	0,02
877,764	0,02
878,142	0,02
878,519	0,02
878,896	0,02
879,273	0,02
879,65	0,02
880,027	0,02
880,404	0,02
880,781	0,02
881,158	0,02
881,534	0,02
881,911	0,02
882,288	0,02
882,664	0,02
883,041	0,02
883,417	0,03
883,793	0,02
884,17	0,02
884,546	0,03
884,922	0,02
885,298	0,02
885,674	0,02
886,05	0,02
886,426	0,02
886,802	0,03
887,178	0,03
887,553	0,02
887,929	0,03
888,305	0,03
888,68	0,02
889,056	0,03
889,431	0,02
889,806	0,02
890,182	0,03
890,557	0,02
890,932	0,03
891,307	0,03
891,682	0,03
892,057	0,02
892,432	0,03
892,807	0,02
893,181	0,03
893,556	0,03
893,931	0,02
894,305	0,03
894,68	0,03
895,054	0,03
895,428	0,03
895,803	0,03
896,177	0,03
896,551	0,03
896,925	0,03
897,299	0,03
897,673	0,03
898,047	0,03
898,421	0,03
898,795	0,03
899,169	0,03
899,542	0,03
899,916	0,03
900,289	0,03
900,663	0,03
901,036	0,03
901,41	0,03
901,783	0,03
902,156	0,03
902,529	0,03
902,902	0,03
903,275	0,03
903,648	0,03
904,021	0,03
904,394	0,03
904,767	0,03
905,139	0,04
905,512	0,03
905,885	0,03
906,257	0,03
906,629	0,03
907,002	0,04
907,374	0,04
907,746	0,03
908,119	0,03
908,491	0,03
908,863	0,04
909,235	0,03
909,607	0,04
909,978	0,04
910,35	0,03
910,722	0,03
911,094	0,03
911,465	0,03
911,837	0,03
912,208	0,03
912,58	0,03
912,951	0,03
913,322	0,03
913,693	0,03
914,065	0,03
914,436	0,03
914,807	0,03
915,178	0,03
915,548	0,03
915,919	0,03
916,29	0,02
916,661	0,03
917,031	0,03
917,402	0,03
917,772	0,02
918,143	0,03
918,513	0,03
918,884	0,03
919,254	0,03
919,624	0,03
919,994	0,03
920,364	0,02
920,734	0,03
921,104	0,03
921,474	0,02
921,844	0,03
922,213	0,03
922,583	0,03
922,953	0,03
923,322	0,03
923,692	0,03
924,061	0,03
924,43	0,03
924,8	0,03
925,169	0,02
925,538	0,03
925,907	0,02
926,276	0,02
926,645	0,03
927,014	0,02
927,383	0,03
927,751	0,03
928,12	0,03
928,489	0,03
928,857	0,03
929,226	0,02
929,594	0,02
929,962	0,03
930,331	0,03
930,699	0,03
931,067	0,03
931,435	0,03
931,803	0,02
932,171	0,02
932,539	0,02
932,907	0,02
933,275	0,02
933,642	0,02
934,01	0,02
934,378	0,02
934,745	0,02
935,113	0,02
935,48	0,02
935,847	0,03
936,215	0,03
936,582	0,02
936,949	0,03
937,316	0,02
937,683	0,02
938,05	0,03
938,417	0,01
938,783	0,02
939,15	0,02
939,517	0,02
939,883	0,02
940,25	0,02
940,616	0,02
940,983	0,02
941,349	0,01
941,715	0,02
942,082	0,01
942,448	0,02
942,814	0,01
943,18	0,02
943,546	0,02
943,912	0,01
944,277	0,02
944,643	0,02
945,009	0,02
945,374	0,01
945,74	0,02
946,105	0,02
946,471	0,01
946,836	0,03
947,202	0,01
947,567	0,02
947,932	0,01
948,297	0,02
948,662	0,02
949,027	0,02
949,392	0,02
949,757	0,02
950,121	0,01
950,486	0,01
950,851	0,01
951,215	0,02
951,58	0,01
951,944	0,02
952,309	0,02
952,673	0,02
953,037	0
953,401	0,01
953,765	0,01
954,129	0
954,493	0,02
954,857	0,01
955,221	0,02
955,585	0,01
955,949	0,02
956,312	0
956,676	0,01
957,039	0,01
957,403	0,01
957,766	0,01
958,13	0
958,493	0,01
958,856	0,01
959,219	0,01
959,582	0,01
959,945	0,02
960,308	0,03
960,671	0,01
961,034	0
961,396	0,02
961,759	0,02
962,122	0,02
962,484	0,03
962,847	0,03
963,209	0,01
963,571	0,01
963,934	0,01
964,296	0
964,658	0,01
965,02	0,01
965,382	0,02
965,744	0,02
966,106	0,01
966,468	0,03
966,829	0,01
967,191	0,02
967,553	0,02
967,914	0,04
968,276	0
968,637	0
968,998	0,01
969,36	0,02
969,721	0,03
970,082	0,01
970,443	0,02
970,804	0,01
971,165	0,01
971,526	-0
971,887	0,01
972,247	0
972,608	0,02
972,969	0,03
973,329	0,04
973,69	0,02
974,05	0,02
974,41	0,04
974,771	0,04
975,131	-0,01
975,491	0,02
975,851	0,03
976,211	0,01
976,571	0,02
976,931	0,02
977,291	0,03
977,65	0,01
978,01	0,03
978,37	0,03
978,729	0,02
979,089	0,03
979,448	0,02
979,807	-0,02
980,167	0
980,526	0,02
980,885	0
981,244	0,02
981,603	0,01
981,962	0,05
982,321	0,03
982,68	0,03
983,038	0,01
983,397	0,04
983,756	0,04
984,114	0,03
984,473	0,03
984,831	0,01
985,19	0,04
985,548	0,05
985,906	0,02
986,264	0,02
986,622	0,06
986,98	0,02
987,338	0,02
987,696	0,01
988,054	0,04
988,412	0,04
988,769	0,03
989,127	0,01
989,484	0
989,842	0,06
990,199	0,07
990,557	0,04
990,914	0,02
991,271	0,01
991,628	0,03
991,985	0,01
992,342	0,02
992,699	0,03
993,056	0,02
993,413	-0
993,77	0
994,126	0,01
994,483	0,03
994,84	0,01
995,196	0,03
995,552	0,04
995,909	-0
996,265	-0
996,621	0,04
996,977	0,07
997,333	0,04
997,689	-0,02
998,045	0,03
998,401	0,03
998,757	0,04
999,113	0
999,468	0,04
999,824	0,01
1000,18	-0
1000,535	0
1000,89	0,02
1001,246	0,01
1001,601	0,01
1001,956	0,02
1002,311	0,03
1002,666	0,07
1003,021	0,04
1003,376	-0,01
1003,731	0,07
1004,086	-0,02
1004,441	0,01
1004,795	0,04
1005,15	0,04
1005,505	0,01
1005,859	0,01
1006,213	0,04
1006,568	0,02
1006,922	-0,01
1007,276	-0
1007,63	0,03
1007,984	0,06
1008,338	-0,01
1008,692	0
1009,046	0,02
1009,4	0,04
1009,754	-0,01
1010,107	-0,04
1010,461	0,04
1010,814	0,02
1011,168	-0,02
1011,521	0,04
1011,874	0,02
1012,228	0,07
1012,581	-0,02
1012,934	0,05
1013,287	0,01
1013,64	0,01
1013,993	0,02
1014,346	0,01
1014,699	0,01
1015,051	-0,04
1015,404	-0,01
1015,756	0,05
1016,109	0,02
1016,461	0,01
1016,814	-0,01
1017,166	-0,04
1017,518	-0,02
1017,87	0,01
1018,223	0,02
1018,575	0,06
1018,927	0,01
1019,278	0,03
1019,63	0,03
1019,982	0,04
1020,334	0,03
1020,685	0,05
1021,037	0,02
1021,388	0,02
1021,74	0,04
1022,091	0,04
1022,442	0,02
1022,794	0,03
1023,145	0,07
1023,496	-0
1023,847	0,03
1024,198	0,03
1024,549	-0
1024,9	0,08
1025,25	0,03
1025,601	-0
1025,952	-0,03
1026,302	-0,01
1026,653	0,02
1027,003	-0,03
1027,353	0,02
1027,704	0,03
1028,054	0,04
1028,404	0,04
1028,754	0,04
1029,104	0,03
1029,454	0,05
1029,804	-0,04
1030,154	-0
1030,503	-0
1030,853	-0
