Data from Absorbance__66__15-37-48-633.txt Node

Date: Wed May 05 15:37:48 CEST 2021
User: thoma
Spectrometer: FLMS06037
Trigger mode: 0
Integration Time (sec): 1,451500E-1
Scans to average: 10
Electric dark correction enabled: true
Nonlinearity correction enabled: false
Boxcar width: 0
XAxis mode: Wavelengths
Number of Pixels in Spectrum: 2048
>>>>>Begin Spectral Data<<<<<
187,642	-0
188,109	-0
188,576	-0
189,043	-0
189,51	-0
189,976	-0,24
190,443	-0,27
190,91	0,13
191,376	-0
191,843	0,1
192,309	0,49
192,776	0,82
193,242	-0,31
193,708	-0
194,175	0,17
194,641	0,04
195,107	-0
195,573	0,06
196,039	0,05
196,505	-0,41
196,971	-0
197,437	-0
197,903	0,23
198,369	0,15
198,835	0,13
199,301	0,16
199,766	0,14
200,232	0,15
200,698	0,15
201,163	0,15
201,629	0,17
202,094	0,14
202,56	0,14
203,025	0,15
203,49	0,16
203,956	0,16
204,421	0,16
204,886	0,18
205,351	0,18
205,816	0,17
206,281	0,15
206,746	0,16
207,211	0,18
207,676	0,19
208,141	0,17
208,606	0,18
209,071	0,17
209,536	0,2
210	0,21
210,465	0,22
210,929	0,24
211,394	0,26
211,859	0,25
212,323	0,28
212,787	0,32
213,252	0,32
213,716	0,35
214,18	0,39
214,645	0,43
215,109	0,47
215,573	0,52
216,037	0,56
216,501	0,59
216,965	0,65
217,429	0,72
217,893	0,75
218,357	0,83
218,82	0,88
219,284	0,91
219,748	0,98
220,211	1,03
220,675	1,07
221,139	1,14
221,602	1,18
222,066	1,21
222,529	1,23
222,992	1,3
223,456	1,3
223,919	1,35
224,382	1,39
224,845	1,41
225,308	1,43
225,772	1,42
226,235	1,47
226,698	1,5
227,16	1,5
227,623	1,5
228,086	1,51
228,549	1,52
229,012	1,54
229,474	1,54
229,937	1,55
230,4	1,57
230,862	1,58
231,325	1,57
231,787	1,58
232,25	1,57
232,712	1,57
233,174	1,58
233,637	1,57
234,099	1,56
234,561	1,55
235,023	1,55
235,485	1,57
235,947	1,58
236,409	1,55
236,871	1,57
237,333	1,58
237,795	1,57
238,257	1,57
238,718	1,58
239,18	1,56
239,642	1,55
240,103	1,54
240,565	1,54
241,026	1,57
241,488	1,53
241,949	1,56
242,411	1,57
242,872	1,56
243,333	1,54
243,795	1,54
244,256	1,54
244,717	1,53
245,178	1,53
245,639	1,55
246,1	1,53
246,561	1,54
247,022	1,55
247,483	1,57
247,943	1,58
248,404	1,59
248,865	1,58
249,325	1,59
249,786	1,59
250,247	1,57
250,707	1,6
251,168	1,61
251,628	1,6
252,088	1,58
252,549	1,6
253,009	1,61
253,469	1,6
253,929	1,6
254,389	1,61
254,849	1,63
255,309	1,62
255,769	1,61
256,229	1,62
256,689	1,64
257,149	1,65
257,609	1,66
258,069	1,64
258,528	1,65
258,988	1,67
259,448	1,67
259,907	1,68
260,367	1,69
260,826	1,68
261,285	1,67
261,745	1,68
262,204	1,66
262,663	1,67
263,122	1,66
263,582	1,68
264,041	1,7
264,5	1,68
264,959	1,71
265,418	1,69
265,877	1,67
266,336	1,68
266,794	1,68
267,253	1,68
267,712	1,71
268,171	1,67
268,629	1,66
269,088	1,68
269,546	1,68
270,005	1,68
270,463	1,71
270,922	1,67
271,38	1,69
271,838	1,7
272,296	1,69
272,755	1,68
273,213	1,68
273,671	1,69
274,129	1,69
274,587	1,68
275,045	1,69
275,503	1,67
275,961	1,69
276,418	1,69
276,876	1,68
277,334	1,69
277,791	1,69
278,249	1,69
278,707	1,69
279,164	1,69
279,622	1,68
280,079	1,69
280,536	1,68
280,994	1,68
281,451	1,68
281,908	1,67
282,365	1,66
282,822	1,67
283,28	1,68
283,737	1,68
284,193	1,68
284,65	1,68
285,107	1,69
285,564	1,68
286,021	1,69
286,478	1,69
286,934	1,64
287,391	1,68
287,848	1,67
288,304	1,68
288,761	1,67
289,217	1,64
289,673	1,68
290,13	1,68
290,586	1,67
291,042	1,64
291,498	1,67
291,955	1,65
292,411	1,66
292,867	1,65
293,323	1,67
293,779	1,66
294,235	1,65
294,69	1,65
295,146	1,66
295,602	1,64
296,058	1,65
296,513	1,66
296,969	1,66
297,424	1,64
297,88	1,63
298,335	1,63
298,791	1,62
299,246	1,61
299,701	1,61
300,157	1,61
300,612	1,62
301,067	1,63
301,522	1,61
301,977	1,61
302,432	1,62
302,887	1,64
303,342	1,66
303,797	1,63
304,252	1,62
304,707	1,63
305,161	1,63
305,616	1,63
306,071	1,62
306,525	1,62
306,98	1,62
307,434	1,62
307,889	1,62
308,343	1,63
308,797	1,62
309,252	1,63
309,706	1,62
310,16	1,61
310,614	1,61
311,068	1,62
311,522	1,6
311,976	1,6
312,43	1,62
312,884	1,62
313,338	1,62
313,792	1,58
314,245	1,6
314,699	1,6
315,153	1,6
315,606	1,58
316,06	1,57
316,513	1,58
316,967	1,58
317,42	1,6
317,873	1,58
318,327	1,58
318,78	1,56
319,233	1,58
319,686	1,57
320,139	1,57
320,592	1,58
321,045	1,58
321,498	1,56
321,951	1,55
322,404	1,56
322,857	1,56
323,31	1,57
323,762	1,55
324,215	1,53
324,667	1,53
325,12	1,48
325,573	1,5
326,025	1,49
326,477	1,5
326,93	1,53
327,382	1,55
327,834	1,57
328,286	1,58
328,739	1,58
329,191	1,57
329,643	1,56
330,095	1,56
330,547	1,54
330,999	1,53
331,45	1,54
331,902	1,53
332,354	1,53
332,806	1,51
333,257	1,51
333,709	1,51
334,16	1,51
334,612	1,53
335,063	1,51
335,515	1,53
335,966	1,53
336,417	1,54
336,869	1,54
337,32	1,55
337,771	1,52
338,222	1,49
338,673	1,46
339,124	1,46
339,575	1,45
340,026	1,43
340,477	1,45
340,928	1,46
341,378	1,46
341,829	1,45
342,28	1,46
342,73	1,45
343,181	1,45
343,631	1,46
344,082	1,43
344,532	1,41
344,982	1,44
345,433	1,43
345,883	1,43
346,333	1,43
346,783	1,43
347,233	1,43
347,683	1,43
348,133	1,43
348,583	1,43
349,033	1,44
349,483	1,43
349,933	1,44
350,383	1,44
350,832	1,43
351,282	1,41
351,732	1,41
352,181	1,42
352,631	1,41
353,08	1,4
353,529	1,41
353,979	1,39
354,428	1,39
354,877	1,39
355,327	1,39
355,776	1,41
356,225	1,39
356,674	1,39
357,123	1,38
357,572	1,37
358,021	1,39
358,469	1,36
358,918	1,37
359,367	1,39
359,816	1,36
360,264	1,36
360,713	1,38
361,161	1,34
361,61	1,37
362,058	1,35
362,507	1,36
362,955	1,35
363,403	1,36
363,852	1,35
364,3	1,35
364,748	1,35
365,196	1,35
365,644	1,36
366,092	1,33
366,54	1,33
366,988	1,34
367,436	1,33
367,883	1,34
368,331	1,31
368,779	1,32
369,226	1,33
369,674	1,32
370,121	1,33
370,569	1,32
371,016	1,32
371,464	1,29
371,911	1,3
372,358	1,3
372,805	1,3
373,253	1,26
373,7	1,31
374,147	1,28
374,594	1,28
375,041	1,28
375,488	1,27
375,935	1,27
376,381	1,27
376,828	1,26
377,275	1,25
377,721	1,25
378,168	1,24
378,615	1,25
379,061	1,23
379,508	1,22
379,954	1,22
380,4	1,19
380,847	1,2
381,293	1,2
381,739	1,18
382,185	1,18
382,631	1,16
383,077	1,15
383,523	1,13
383,969	1,12
384,415	1,11
384,861	1,1
385,307	1,1
385,752	1,07
386,198	1,06
386,644	1,04
387,089	1,04
387,535	1,03
387,98	1,02
388,426	1,01
388,871	1,01
389,317	0,99
389,762	0,97
390,207	0,96
390,652	0,95
391,097	0,93
391,542	0,92
391,987	0,9
392,432	0,9
392,877	0,89
393,322	0,88
393,767	0,88
394,212	0,85
394,656	0,85
395,101	0,84
395,546	0,83
395,99	0,81
396,435	0,81
396,879	0,79
397,324	0,79
397,768	0,78
398,212	0,76
398,657	0,76
399,101	0,76
399,545	0,74
399,989	0,74
400,433	0,73
400,877	0,72
401,321	0,71
401,765	0,7
402,209	0,7
402,653	0,69
403,096	0,68
403,54	0,68
403,984	0,66
404,427	0,66
404,871	0,65
405,314	0,65
405,758	0,64
406,201	0,64
406,644	0,64
407,088	0,63
407,531	0,62
407,974	0,62
408,417	0,61
408,86	0,6
409,303	0,6
409,746	0,59
410,189	0,59
410,632	0,59
411,075	0,58
411,517	0,58
411,96	0,57
412,403	0,57
412,845	0,56
413,288	0,56
413,73	0,56
414,173	0,55
414,615	0,54
415,058	0,54
415,5	0,53
415,942	0,53
416,384	0,52
416,826	0,51
417,268	0,51
417,711	0,52
418,152	0,5
418,594	0,51
419,036	0,5
419,478	0,5
419,92	0,49
420,362	0,48
420,803	0,49
421,245	0,48
421,686	0,48
422,128	0,48
422,569	0,47
423,011	0,47
423,452	0,47
423,893	0,46
424,335	0,46
424,776	0,45
425,217	0,45
425,658	0,45
426,099	0,44
426,54	0,44
426,981	0,44
427,422	0,44
427,863	0,43
428,304	0,43
428,744	0,43
429,185	0,42
429,626	0,42
430,066	0,42
430,507	0,41
430,947	0,41
431,388	0,41
431,828	0,4
432,268	0,4
432,709	0,4
433,149	0,39
433,589	0,39
434,029	0,39
434,469	0,39
434,909	0,38
435,349	0,38
435,789	0,38
436,229	0,37
436,669	0,37
437,108	0,37
437,548	0,37
437,988	0,37
438,427	0,36
438,867	0,35
439,306	0,35
439,746	0,35
440,185	0,35
440,624	0,35
441,064	0,34
441,503	0,34
441,942	0,34
442,381	0,34
442,82	0,33
443,259	0,33
443,698	0,33
444,137	0,33
444,576	0,33
445,015	0,32
445,453	0,32
445,892	0,32
446,331	0,31
446,769	0,31
447,208	0,31
447,646	0,31
448,085	0,31
448,523	0,31
448,961	0,3
449,4	0,3
449,838	0,3
450,276	0,3
450,714	0,29
451,152	0,29
451,59	0,29
452,028	0,29
452,466	0,28
452,904	0,28
453,342	0,28
453,779	0,28
454,217	0,27
454,655	0,28
455,092	0,27
455,53	0,27
455,967	0,27
456,405	0,27
456,842	0,27
457,279	0,27
457,717	0,26
458,154	0,26
458,591	0,26
459,028	0,26
459,465	0,26
459,902	0,25
460,339	0,25
460,776	0,25
461,213	0,24
461,65	0,25
462,086	0,25
462,523	0,25
462,96	0,24
463,396	0,24
463,833	0,24
464,269	0,24
464,706	0,23
465,142	0,23
465,578	0,24
466,015	0,23
466,451	0,23
466,887	0,23
467,323	0,23
467,759	0,23
468,195	0,23
468,631	0,23
469,067	0,22
469,503	0,22
469,939	0,22
470,374	0,22
470,81	0,22
471,246	0,21
471,681	0,22
472,117	0,21
472,552	0,21
472,988	0,21
473,423	0,21
473,858	0,21
474,294	0,21
474,729	0,2
475,164	0,21
475,599	0,21
476,034	0,2
476,469	0,21
476,904	0,2
477,339	0,2
477,774	0,2
478,208	0,2
478,643	0,2
479,078	0,2
479,512	0,2
479,947	0,19
480,381	0,19
480,816	0,2
481,25	0,19
481,685	0,19
482,119	0,19
482,553	0,19
482,987	0,19
483,421	0,19
483,856	0,19
484,29	0,18
484,724	0,18
485,157	0,18
485,591	0,18
486,025	0,18
486,459	0,18
486,893	0,18
487,326	0,18
487,76	0,17
488,193	0,17
488,627	0,17
489,06	0,17
489,494	0,17
489,927	0,17
490,36	0,17
490,794	0,17
491,227	0,17
491,66	0,17
492,093	0,17
492,526	0,16
492,959	0,16
493,392	0,17
493,825	0,17
494,257	0,16
494,69	0,16
495,123	0,16
495,555	0,16
495,988	0,16
496,421	0,16
496,853	0,16
497,285	0,16
497,718	0,15
498,15	0,15
498,582	0,15
499,015	0,15
499,447	0,15
499,879	0,15
500,311	0,15
500,743	0,15
501,175	0,15
501,607	0,15
502,038	0,15
502,47	0,15
502,902	0,15
503,334	0,15
503,765	0,15
504,197	0,14
504,628	0,14
505,06	0,14
505,491	0,15
505,922	0,14
506,354	0,14
506,785	0,14
507,216	0,14
507,647	0,14
508,078	0,14
508,509	0,14
508,94	0,14
509,371	0,14
509,802	0,14
510,233	0,14
510,664	0,13
511,094	0,13
511,525	0,14
511,955	0,14
512,386	0,13
512,816	0,13
513,247	0,13
513,677	0,13
514,108	0,13
514,538	0,13
514,968	0,13
515,398	0,13
515,828	0,13
516,258	0,13
516,688	0,13
517,118	0,13
517,548	0,13
517,978	0,13
518,408	0,13
518,837	0,13
519,267	0,13
519,697	0,12
520,126	0,12
520,556	0,12
520,985	0,12
521,415	0,12
521,844	0,12
522,273	0,12
522,702	0,12
523,132	0,12
523,561	0,12
523,99	0,12
524,419	0,12
524,848	0,12
525,277	0,12
525,705	0,12
526,134	0,12
526,563	0,12
526,992	0,11
527,42	0,12
527,849	0,12
528,277	0,11
528,706	0,12
529,134	0,11
529,563	0,11
529,991	0,11
530,419	0,11
530,847	0,11
531,275	0,11
531,703	0,11
532,131	0,11
532,559	0,11
532,987	0,11
533,415	0,11
533,843	0,11
534,271	0,11
534,698	0,11
535,126	0,1
535,554	0,11
535,981	0,11
536,409	0,11
536,836	0,1
537,264	0,11
537,691	0,1
538,118	0,11
538,545	0,1
538,972	0,11
539,4	0,1
539,827	0,1
540,254	0,1
540,681	0,1
541,107	0,1
541,534	0,1
541,961	0,1
542,388	0,1
542,814	0,1
543,241	0,1
543,667	0,1
544,094	0,1
544,52	0,1
544,947	0,1
545,373	0,1
545,799	0,1
546,226	0,1
546,652	0,1
547,078	0,1
547,504	0,1
547,93	0,1
548,356	0,09
548,782	0,09
549,208	0,09
549,633	0,09
550,059	0,09
550,485	0,09
550,91	0,09
551,336	0,09
551,761	0,09
552,187	0,09
552,612	0,09
553,038	0,09
553,463	0,09
553,888	0,09
554,313	0,09
554,738	0,09
555,163	0,09
555,588	0,09
556,013	0,09
556,438	0,09
556,863	0,09
557,288	0,09
557,713	0,09
558,137	0,09
558,562	0,09
558,986	0,09
559,411	0,09
559,835	0,09
560,26	0,09
560,684	0,09
561,108	0,09
561,533	0,09
561,957	0,09
562,381	0,09
562,805	0,09
563,229	0,09
563,653	0,09
564,077	0,09
564,501	0,08
564,925	0,08
565,348	0,08
565,772	0,09
566,196	0,08
566,619	0,09
567,043	0,08
567,466	0,08
567,89	0,08
568,313	0,08
568,736	0,08
569,159	0,08
569,583	0,08
570,006	0,08
570,429	0,08
570,852	0,08
571,275	0,08
571,698	0,08
572,12	0,08
572,543	0,08
572,966	0,08
573,389	0,08
573,811	0,08
574,234	0,08
574,656	0,07
575,079	0,07
575,501	0,07
575,924	0,07
576,346	0,07
576,768	0,07
577,19	0,07
577,612	0,07
578,034	0,07
578,456	0,07
578,878	0,07
579,3	0,07
579,722	0,07
580,144	0,07
580,566	0,07
580,987	0,07
581,409	0,07
581,83	0,07
582,252	0,07
582,673	0,07
583,095	0,07
583,516	0,07
583,937	0,07
584,359	0,07
584,78	0,07
585,201	0,07
585,622	0,07
586,043	0,07
586,464	0,07
586,885	0,07
587,306	0,07
587,726	0,07
588,147	0,07
588,568	0,07
588,988	0,07
589,409	0,07
589,83	0,07
590,25	0,07
590,67	0,07
591,091	0,07
591,511	0,07
591,931	0,07
592,351	0,07
592,771	0,07
593,192	0,07
593,612	0,07
594,031	0,07
594,451	0,06
594,871	0,07
595,291	0,07
595,711	0,07
596,13	0,07
596,55	0,07
596,969	0,07
597,389	0,07
597,808	0,07
598,228	0,07
598,647	0,07
599,066	0,07
599,486	0,07
599,905	0,07
600,324	0,06
600,743	0,06
601,162	0,06
601,581	0,06
602	0,06
602,418	0,06
602,837	0,06
603,256	0,07
603,674	0,06
604,093	0,06
604,512	0,07
604,93	0,06
605,349	0,06
605,767	0,06
606,185	0,06
606,603	0,06
607,022	0,06
607,44	0,06
607,858	0,06
608,276	0,06
608,694	0,06
609,112	0,06
609,53	0,06
609,947	0,06
610,365	0,07
610,783	0,06
611,2	0,07
611,618	0,06
612,036	0,07
612,453	0,07
612,87	0,07
613,288	0,07
613,705	0,06
614,122	0,07
614,539	0,07
614,957	0,07
615,374	0,06
615,791	0,07
616,208	0,06
616,624	0,06
617,041	0,06
617,458	0,06
617,875	0,07
618,291	0,07
618,708	0,07
619,125	0,07
619,541	0,07
619,958	0,07
620,374	0,07
620,79	0,07
621,206	0,07
621,623	0,07
622,039	0,07
622,455	0,07
622,871	0,07
623,287	0,07
623,703	0,07
624,119	0,07
624,535	0,07
624,95	0,07
625,366	0,07
625,782	0,07
626,197	0,07
626,613	0,07
627,028	0,07
627,444	0,07
627,859	0,07
628,274	0,07
628,69	0,07
629,105	0,07
629,52	0,07
629,935	0,07
630,35	0,07
630,765	0,07
631,18	0,07
631,595	0,07
632,009	0,07
632,424	0,07
632,839	0,07
633,253	0,07
633,668	0,07
634,082	0,07
634,497	0,07
634,911	0,07
635,326	0,07
635,74	0,07
636,154	0,07
636,568	0,07
636,982	0,07
637,396	0,07
637,81	0,07
638,224	0,07
638,638	0,07
639,052	0,07
639,466	0,07
639,879	0,07
640,293	0,07
640,707	0,07
641,12	0,07
641,534	0,07
641,947	0,07
642,36	0,07
642,774	0,07
643,187	0,07
643,6	0,07
644,013	0,07
644,426	0,07
644,839	0,07
645,252	0,07
645,665	0,07
646,078	0,07
646,491	0,07
646,904	0,07
647,316	0,07
647,729	0,07
648,141	0,07
648,554	0,07
648,966	0,07
649,379	0,07
649,791	0,07
650,203	0,07
650,615	0,07
651,028	0,07
651,44	0,07
651,852	0,07
652,264	0,07
652,676	0,07
653,087	0,07
653,499	0,07
653,911	0,07
654,323	0,07
654,734	0,07
655,146	0,07
655,557	0,07
655,969	0,07
656,38	0,07
656,792	0,07
657,203	0,06
657,614	0,06
658,025	0,06
658,436	0,06
658,847	0,06
659,258	0,07
659,669	0,07
660,08	0,07
660,491	0,07
660,902	0,07
661,312	0,07
661,723	0,07
662,134	0,07
662,544	0,07
662,955	0,07
663,365	0,07
663,775	0,07
664,186	0,07
664,596	0,07
665,006	0,07
665,416	0,07
665,826	0,07
666,236	0,07
666,646	0,07
667,056	0,07
667,466	0,07
667,876	0,07
668,286	0,07
668,695	0,07
669,105	0,07
669,514	0,07
669,924	0,07
670,333	0,07
670,743	0,07
671,152	0,07
671,561	0,07
671,97	0,07
672,38	0,07
672,789	0,07
673,198	0,07
673,607	0,07
674,016	0,07
674,424	0,07
674,833	0,07
675,242	0,07
675,651	0,07
676,059	0,07
676,468	0,07
676,876	0,07
677,285	0,07
677,693	0,07
678,101	0,07
678,51	0,07
678,918	0,07
679,326	0,07
679,734	0,07
680,142	0,07
680,55	0,07
680,958	0,07
681,366	0,07
681,774	0,07
682,181	0,07
682,589	0,07
682,997	0,07
683,404	0,07
683,812	0,07
684,219	0,07
684,627	0,07
685,034	0,07
685,441	0,07
685,848	0,07
686,256	0,07
686,663	0,07
687,07	0,07
687,477	0,07
687,884	0,07
688,29	0,07
688,697	0,07
689,104	0,07
689,511	0,07
689,917	0,07
690,324	0,07
690,73	0,07
691,137	0,07
691,543	0,07
691,95	0,07
692,356	0,07
692,762	0,07
693,168	0,07
693,574	0,07
693,98	0,07
694,386	0,07
694,792	0,07
695,198	0,07
695,604	0,07
696,01	0,07
696,415	0,07
696,821	0,07
697,227	0,07
697,632	0,07
698,038	0,07
698,443	0,07
698,848	0,07
699,254	0,07
699,659	0,07
700,064	0,07
700,469	0,07
700,874	0,07
701,279	0,07
701,684	0,07
702,089	0,07
702,494	0,07
702,898	0,07
703,303	0,07
703,708	0,07
704,112	0,07
704,517	0,07
704,921	0,07
705,326	0,07
705,73	0,07
706,134	0,07
706,538	0,07
706,943	0,07
707,347	0,07
707,751	0,07
708,155	0,07
708,559	0,07
708,963	0,07
709,366	0,07
709,77	0,07
710,174	0,07
710,577	0,07
710,981	0,07
711,384	0,07
711,788	0,07
712,191	0,07
712,595	0,07
712,998	0,07
713,401	0,07
713,804	0,07
714,207	0,07
714,61	0,07
715,013	0,07
715,416	0,07
715,819	0,07
716,222	0,07
716,625	0,07
717,027	0,07
717,43	0,07
717,833	0,07
718,235	0,07
718,638	0,07
719,04	0,07
719,442	0,07
719,844	0,07
720,247	0,07
720,649	0,07
721,051	0,07
721,453	0,06
721,855	0,07
722,257	0,07
722,659	0,06
723,06	0,07
723,462	0,07
723,864	0,07
724,265	0,07
724,667	0,07
725,069	0,07
725,47	0,07
725,871	0,06
726,273	0,07
726,674	0,07
727,075	0,07
727,476	0,07
727,877	0,07
728,278	0,06
728,679	0,06
729,08	0,07
729,481	0,06
729,882	0,06
730,282	0,06
730,683	0,06
731,084	0,07
731,484	0,06
731,885	0,06
732,285	0,06
732,686	0,07
733,086	0,06
733,486	0,06
733,886	0,06
734,286	0,06
734,686	0,06
735,086	0,06
735,486	0,06
735,886	0,06
736,286	0,06
736,686	0,06
737,086	0,06
737,485	0,06
737,885	0,06
738,284	0,06
738,684	0,06
739,083	0,06
739,482	0,06
739,882	0,06
740,281	0,06
740,68	0,06
741,079	0,06
741,478	0,06
741,877	0,07
742,276	0,06
742,675	0,06
743,074	0,07
743,473	0,07
743,871	0,06
744,27	0,06
744,668	0,07
745,067	0,07
745,465	0,07
745,864	0,07
746,262	0,06
746,66	0,07
747,059	0,07
747,457	0,07
747,855	0,07
748,253	0,07
748,651	0,07
749,049	0,07
749,447	0,06
749,844	0,07
750,242	0,07
750,64	0,07
751,037	0,07
751,435	0,07
751,832	0,06
752,23	0,06
752,627	0,07
753,024	0,07
753,422	0,06
753,819	0,07
754,216	0,07
754,613	0,06
755,01	0,06
755,407	0,07
755,804	0,07
756,201	0,07
756,597	0,07
756,994	0,06
757,391	0,06
757,787	0,06
758,184	0,06
758,58	0,06
758,977	0,06
759,373	0,06
759,769	0,07
760,166	0,06
760,562	0,07
760,958	0,07
761,354	0,07
761,75	0,06
762,146	0,06
762,542	0,06
762,937	0,07
763,333	0,06
763,729	0,07
764,124	0,07
764,52	0,07
764,915	0,07
765,311	0,07
765,706	0,07
766,101	0,06
766,497	0,06
766,892	0,06
767,287	0,07
767,682	0,07
768,077	0,07
768,472	0,07
768,867	0,07
769,262	0,07
769,657	0,07
770,051	0,07
770,446	0,06
770,84	0,07
771,235	0,07
771,629	0,06
772,024	0,07
772,418	0,07
772,812	0,07
773,207	0,07
773,601	0,07
773,995	0,07
774,389	0,07
774,783	0,07
775,177	0,07
775,571	0,07
775,964	0,07
776,358	0,07
776,752	0,07
777,145	0,07
777,539	0,07
777,932	0,07
778,326	0,07
778,719	0,07
779,113	0,07
779,506	0,07
779,899	0,07
780,292	0,07
780,685	0,07
781,078	0,07
781,471	0,07
781,864	0,07
782,257	0,07
782,65	0,07
783,042	0,07
783,435	0,07
783,827	0,07
784,22	0,07
784,612	0,07
785,005	0,07
785,397	0,07
785,789	0,07
786,182	0,07
786,574	0,07
786,966	0,07
787,358	0,07
787,75	0,07
788,142	0,07
788,534	0,07
788,925	0,07
789,317	0,07
789,709	0,07
790,1	0,07
790,492	0,07
790,883	0,07
791,275	0,07
791,666	0,07
792,057	0,07
792,449	0,07
792,84	0,07
793,231	0,07
793,622	0,07
794,013	0,07
794,404	0,07
794,795	0,07
795,185	0,07
795,576	0,07
795,967	0,07
796,357	0,07
796,748	0,07
797,138	0,07
797,529	0,07
797,919	0,07
798,31	0,07
798,7	0,07
799,09	0,07
799,48	0,07
799,87	0,07
800,26	0,07
800,65	0,07
801,04	0,07
801,43	0,07
801,82	0,07
802,209	0,07
802,599	0,07
802,988	0,07
803,378	0,07
803,767	0,07
804,157	0,07
804,546	0,07
804,935	0,07
805,325	0,07
805,714	0,07
806,103	0,08
806,492	0,08
806,881	0,07
807,27	0,07
807,658	0,07
808,047	0,07
808,436	0,07
808,824	0,07
809,213	0,07
809,602	0,07
809,99	0,07
810,378	0,07
810,767	0,07
811,155	0,08
811,543	0,08
811,931	0,07
812,319	0,07
812,708	0,07
813,095	0,08
813,483	0,08
813,871	0,07
814,259	0,08
814,647	0,07
815,034	0,07
815,422	0,08
815,809	0,07
816,197	0,08
816,584	0,08
816,972	0,08
817,359	0,08
817,746	0,08
818,133	0,07
818,52	0,07
818,907	0,07
819,294	0,08
819,681	0,08
820,068	0,08
820,455	0,08
820,842	0,08
821,228	0,08
821,615	0,07
822,002	0,08
822,388	0,07
822,774	0,08
823,161	0,08
823,547	0,08
823,933	0,08
824,319	0,07
824,706	0,08
825,092	0,08
825,478	0,08
825,863	0,07
826,249	0,08
826,635	0,08
827,021	0,08
827,407	0,08
827,792	0,08
828,178	0,08
828,563	0,08
828,949	0,08
829,334	0,08
829,719	0,07
830,104	0,08
830,49	0,08
830,875	0,08
831,26	0,07
831,645	0,08
832,03	0,08
832,415	0,08
832,799	0,08
833,184	0,08
833,569	0,08
833,953	0,07
834,338	0,08
834,722	0,08
835,107	0,08
835,491	0,08
835,875	0,08
836,26	0,08
836,644	0,08
837,028	0,08
837,412	0,08
837,796	0,08
838,18	0,08
838,564	0,07
838,948	0,08
839,331	0,08
839,715	0,08
840,099	0,08
840,482	0,08
840,866	0,08
841,249	0,08
841,632	0,08
842,016	0,08
842,399	0,08
842,782	0,08
843,165	0,08
843,548	0,08
843,931	0,08
844,314	0,08
844,697	0,08
845,08	0,08
845,463	0,08
845,845	0,08
846,228	0,08
846,61	0,08
846,993	0,08
847,375	0,08
847,758	0,08
848,14	0,08
848,522	0,08
848,904	0,08
849,286	0,08
849,668	0,08
850,05	0,08
850,432	0,08
850,814	0,08
851,196	0,08
851,578	0,08
851,959	0,08
852,341	0,08
852,722	0,08
853,104	0,08
853,485	0,08
853,867	0,08
854,248	0,08
854,629	0,08
855,01	0,08
855,391	0,08
855,773	0,08
856,153	0,08
856,534	0,08
856,915	0,08
857,296	0,08
857,677	0,08
858,057	0,08
858,438	0,08
858,819	0,08
859,199	0,08
859,579	0,08
859,96	0,08
860,34	0,08
860,72	0,08
861,1	0,08
861,48	0,08
861,86	0,08
862,24	0,08
862,62	0,08
863	0,08
863,38	0,08
863,76	0,08
864,139	0,08
864,519	0,08
864,898	0,08
865,278	0,08
865,657	0,08
866,037	0,08
866,416	0,08
866,795	0,08
867,174	0,08
867,553	0,08
867,932	0,08
868,311	0,08
868,69	0,08
869,069	0,08
869,448	0,08
869,826	0,08
870,205	0,08
870,584	0,08
870,962	0,08
871,341	0,08
871,719	0,08
872,097	0,08
872,475	0,09
872,854	0,09
873,232	0,08
873,61	0,09
873,988	0,08
874,366	0,08
874,744	0,09
875,121	0,08
875,499	0,08
875,877	0,08
876,255	0,09
876,632	0,08
877,01	0,09
877,387	0,09
877,764	0,09
878,142	0,08
878,519	0,09
878,896	0,09
879,273	0,08
879,65	0,08
880,027	0,09
880,404	0,08
880,781	0,08
881,158	0,08
881,534	0,09
881,911	0,08
882,288	0,09
882,664	0,09
883,041	0,09
883,417	0,09
883,793	0,08
884,17	0,09
884,546	0,09
884,922	0,09
885,298	0,09
885,674	0,08
886,05	0,08
886,426	0,08
886,802	0,08
887,178	0,09
887,553	0,09
887,929	0,09
888,305	0,09
888,68	0,09
889,056	0,09
889,431	0,09
889,806	0,08
890,182	0,09
890,557	0,08
890,932	0,09
891,307	0,09
891,682	0,09
892,057	0,09
892,432	0,09
892,807	0,09
893,181	0,09
893,556	0,09
893,931	0,09
894,305	0,09
894,68	0,09
895,054	0,09
895,428	0,09
895,803	0,09
896,177	0,09
896,551	0,09
896,925	0,09
897,299	0,09
897,673	0,09
898,047	0,09
898,421	0,09
898,795	0,1
899,169	0,09
899,542	0,09
899,916	0,09
900,289	0,09
900,663	0,09
901,036	0,09
901,41	0,09
901,783	0,09
902,156	0,09
902,529	0,09
902,902	0,09
903,275	0,09
903,648	0,09
904,021	0,09
904,394	0,09
904,767	0,09
905,139	0,09
905,512	0,1
905,885	0,09
906,257	0,09
906,629	0,09
907,002	0,09
907,374	0,1
907,746	0,09
908,119	0,09
908,491	0,09
908,863	0,09
909,235	0,09
909,607	0,09
909,978	0,09
910,35	0,09
910,722	0,09
911,094	0,09
911,465	0,09
911,837	0,09
912,208	0,09
912,58	0,08
912,951	0,08
913,322	0,08
913,693	0,08
914,065	0,09
914,436	0,08
914,807	0,09
915,178	0,08
915,548	0,08
915,919	0,08
916,29	0,08
916,661	0,08
917,031	0,08
917,402	0,07
917,772	0,07
918,143	0,08
918,513	0,07
918,884	0,08
919,254	0,07
919,624	0,07
919,994	0,08
920,364	0,07
920,734	0,07
921,104	0,08
921,474	0,07
921,844	0,07
922,213	0,07
922,583	0,07
922,953	0,07
923,322	0,07
923,692	0,08
924,061	0,08
924,43	0,07
924,8	0,06
925,169	0,07
925,538	0,07
925,907	0,07
926,276	0,07
926,645	0,07
927,014	0,06
927,383	0,07
927,751	0,07
928,12	0,07
928,489	0,07
928,857	0,06
929,226	0,06
929,594	0,07
929,962	0,07
930,331	0,06
930,699	0,06
931,067	0,07
931,435	0,07
931,803	0,06
932,171	0,06
932,539	0,06
932,907	0,06
933,275	0,06
933,642	0,06
934,01	0,06
934,378	0,06
934,745	0,06
935,113	0,05
935,48	0,06
935,847	0,06
936,215	0,06
936,582	0,05
936,949	0,05
937,316	0,06
937,683	0,06
938,05	0,06
938,417	0,05
938,783	0,05
939,15	0,06
939,517	0,06
939,883	0,06
940,25	0,06
940,616	0,05
940,983	0,06
941,349	0,05
941,715	0,06
942,082	0,05
942,448	0,04
942,814	0,05
943,18	0,05
943,546	0,05
943,912	0,05
944,277	0,05
944,643	0,06
945,009	0,06
945,374	0,03
945,74	0,06
946,105	0,05
946,471	0,05
946,836	0,06
947,202	0,05
947,567	0,04
947,932	0,04
948,297	0,04
948,662	0,05
949,027	0,06
949,392	0,05
949,757	0,05
950,121	0,05
950,486	0,04
950,851	0,04
951,215	0,06
951,58	0,04
951,944	0,05
952,309	0,05
952,673	0,05
953,037	0,04
953,401	0,04
953,765	0,04
954,129	0,05
954,493	0,05
954,857	0,04
955,221	0,05
955,585	0,04
955,949	0,05
956,312	0,05
956,676	0,04
957,039	0,04
957,403	0,04
957,766	0,04
958,13	0,04
958,493	0,06
958,856	0,04
959,219	0,05
959,582	0,05
959,945	0,04
960,308	0,04
960,671	0,04
961,034	0,03
961,396	0,05
961,759	0,04
962,122	0,04
962,484	0,05
962,847	0,05
963,209	0,03
963,571	0,04
963,934	0,05
964,296	0,04
964,658	0,04
965,02	0,05
965,382	0,05
965,744	0,06
966,106	0,05
966,468	0,05
966,829	0,04
967,191	0,05
967,553	0,05
967,914	0,06
968,276	0,05
968,637	0,04
968,998	0,04
969,36	0,05
969,721	0,06
970,082	0,03
970,443	0,05
970,804	0,05
971,165	0,05
971,526	0,04
971,887	0,07
972,247	0,04
972,608	0,06
972,969	0,06
973,329	0,07
973,69	0,06
974,05	0,05
974,41	0,07
974,771	0,07
975,131	0,03
975,491	0,08
975,851	0,08
976,211	0,06
976,571	0,08
976,931	0,07
977,291	0,08
977,65	0,09
978,01	0,06
978,37	0,06
978,729	0,06
979,089	0,07
979,448	0,09
979,807	0,04
980,167	0,05
980,526	0,08
980,885	0,05
981,244	0,06
981,603	0,08
981,962	0,11
982,321	0,07
982,68	0,09
983,038	0,06
983,397	0,07
983,756	0,08
984,114	0,08
984,473	0,05
984,831	0,08
985,19	0,05
985,548	0,09
985,906	0,06
986,264	0,07
986,622	0,08
986,98	0,07
987,338	0,05
987,696	0,07
988,054	0,07
988,412	0,08
988,769	0,06
989,127	0,04
989,484	0,06
989,842	0,09
990,199	0,11
990,557	0,07
990,914	0,09
991,271	0,06
991,628	0,1
991,985	0,05
992,342	0,07
992,699	0,1
993,056	0,1
993,413	0,07
993,77	0,07
994,126	0,07
994,483	0,07
994,84	0,06
995,196	0,07
995,552	0,08
995,909	0,07
996,265	0,08
996,621	0,11
996,977	0,08
997,333	0,06
997,689	0,07
998,045	0,06
998,401	0,08
998,757	0,07
999,113	0,08
999,468	0,08
999,824	0,09
1000,18	0,04
1000,535	0,06
1000,89	0,08
1001,246	0,12
1001,601	0,1
1001,956	0,08
1002,311	0,06
1002,666	0,08
1003,021	0,09
1003,376	0,06
1003,731	0,06
1004,086	0,03
1004,441	0,04
1004,795	0,08
1005,15	0,12
1005,505	0,05
1005,859	0,04
1006,213	0,06
1006,568	0,08
1006,922	0,06
1007,276	0,04
1007,63	0,08
1007,984	0,08
1008,338	0,06
1008,692	0,06
1009,046	0,07
1009,4	0,08
1009,754	0,1
1010,107	0,03
1010,461	0,01
1010,814	0,05
1011,168	0,06
1011,521	0,13
1011,874	0,06
1012,228	0,07
1012,581	0,05
1012,934	0,04
1013,287	0,06
1013,64	0,05
1013,993	0,04
1014,346	0,09
1014,699	0,06
1015,051	0,05
1015,404	0,1
1015,756	0,07
1016,109	0,09
1016,461	0,06
1016,814	0,05
1017,166	0,03
1017,518	0,05
1017,87	0,07
1018,223	0,05
1018,575	0,08
1018,927	0,07
1019,278	0,05
1019,63	0,06
1019,982	0,15
1020,334	0,12
1020,685	0,1
1021,037	0,09
1021,388	0,04
1021,74	0,04
1022,091	0,05
1022,442	0,12
1022,794	0,11
1023,145	0,09
1023,496	0,06
1023,847	0,04
1024,198	0,08
1024,549	0,13
1024,9	0,08
1025,25	0,09
1025,601	0,07
1025,952	0,04
1026,302	0,09
1026,653	0,14
1027,003	0,09
1027,353	0,05
1027,704	0,07
1028,054	0,05
1028,404	0,08
1028,754	0,08
1029,104	0,07
1029,454	0,11
1029,804	0,08
1030,154	0,07
1030,503	0,07
1030,853	0,07
