Data from Absorbance__4__16-06-12-833.txt Node

Date: Wed May 05 16:06:12 CEST 2021
User: thoma
Spectrometer: FLMS06037
Trigger mode: 0
Integration Time (sec): 1,451500E-1
Scans to average: 10
Electric dark correction enabled: true
Nonlinearity correction enabled: false
Boxcar width: 0
XAxis mode: Wavelengths
Number of Pixels in Spectrum: 2048
>>>>>Begin Spectral Data<<<<<
187,642	-1,2
188,109	-1,2
188,576	-1,2
189,043	0,2
189,51	-0
189,976	-0
190,443	0,44
190,91	-0,16
191,376	0,29
191,843	0,49
192,309	-0
192,776	-0
193,242	-0,57
193,708	-0,15
194,175	0,01
194,641	0,17
195,107	0,64
195,573	-1,33
196,039	-0,03
196,505	1,36
196,971	1,2
197,437	0,49
197,903	-0,04
198,369	0,03
198,835	0,04
199,301	0,06
199,766	0,04
200,232	0,05
200,698	0,05
201,163	0,04
201,629	0,04
202,094	0,04
202,56	0,06
203,025	0,06
203,49	0,05
203,956	0,05
204,421	0,05
204,886	0,06
205,351	0,06
205,816	0,06
206,281	0,06
206,746	0,07
207,211	0,07
207,676	0,07
208,141	0,08
208,606	0,09
209,071	0,09
209,536	0,09
210	0,08
210,465	0,08
210,929	0,1
211,394	0,1
211,859	0,13
212,323	0,13
212,787	0,15
213,252	0,19
213,716	0,19
214,18	0,21
214,645	0,25
215,109	0,27
215,573	0,31
216,037	0,37
216,501	0,41
216,965	0,43
217,429	0,52
217,893	0,53
218,357	0,58
218,82	0,64
219,284	0,7
219,748	0,76
220,211	0,8
220,675	0,84
221,139	0,9
221,602	0,94
222,066	0,98
222,529	1,01
222,992	1,05
223,456	1,1
223,919	1,13
224,382	1,14
224,845	1,18
225,308	1,21
225,772	1,22
226,235	1,26
226,698	1,3
227,16	1,3
227,623	1,3
228,086	1,3
228,549	1,33
229,012	1,34
229,474	1,33
229,937	1,34
230,4	1,37
230,862	1,37
231,325	1,36
231,787	1,38
232,25	1,36
232,712	1,37
233,174	1,37
233,637	1,35
234,099	1,36
234,561	1,34
235,023	1,37
235,485	1,37
235,947	1,37
236,409	1,35
236,871	1,36
237,333	1,36
237,795	1,35
238,257	1,34
238,718	1,34
239,18	1,33
239,642	1,33
240,103	1,33
240,565	1,34
241,026	1,33
241,488	1,33
241,949	1,3
242,411	1,3
242,872	1,34
243,333	1,32
243,795	1,32
244,256	1,33
244,717	1,29
245,178	1,3
245,639	1,32
246,1	1,29
246,561	1,33
247,022	1,34
247,483	1,34
247,943	1,33
248,404	1,35
248,865	1,34
249,325	1,36
249,786	1,37
250,247	1,37
250,707	1,38
251,168	1,39
251,628	1,39
252,088	1,4
252,549	1,41
253,009	1,4
253,469	1,42
253,929	1,4
254,389	1,41
254,849	1,39
255,309	1,42
255,769	1,44
256,229	1,43
256,689	1,44
257,149	1,47
257,609	1,48
258,069	1,47
258,528	1,48
258,988	1,47
259,448	1,47
259,907	1,47
260,367	1,49
260,826	1,5
261,285	1,49
261,745	1,5
262,204	1,49
262,663	1,49
263,122	1,51
263,582	1,49
264,041	1,5
264,5	1,53
264,959	1,51
265,418	1,51
265,877	1,51
266,336	1,51
266,794	1,51
267,253	1,51
267,712	1,52
268,171	1,53
268,629	1,52
269,088	1,53
269,546	1,5
270,005	1,51
270,463	1,52
270,922	1,52
271,38	1,53
271,838	1,53
272,296	1,53
272,755	1,53
273,213	1,51
273,671	1,51
274,129	1,53
274,587	1,51
275,045	1,52
275,503	1,5
275,961	1,52
276,418	1,53
276,876	1,52
277,334	1,55
277,791	1,5
278,249	1,53
278,707	1,53
279,164	1,54
279,622	1,52
280,079	1,53
280,536	1,53
280,994	1,53
281,451	1,52
281,908	1,53
282,365	1,51
282,822	1,53
283,28	1,52
283,737	1,51
284,193	1,52
284,65	1,51
285,107	1,54
285,564	1,52
286,021	1,51
286,478	1,52
286,934	1,49
287,391	1,52
287,848	1,51
288,304	1,5
288,761	1,5
289,217	1,49
289,673	1,5
290,13	1,5
290,586	1,49
291,042	1,5
291,498	1,49
291,955	1,46
292,411	1,48
292,867	1,48
293,323	1,47
293,779	1,46
294,235	1,46
294,69	1,44
295,146	1,45
295,602	1,44
296,058	1,44
296,513	1,44
296,969	1,43
297,424	1,45
297,88	1,41
298,335	1,39
298,791	1,4
299,246	1,37
299,701	1,38
300,157	1,35
300,612	1,37
301,067	1,36
301,522	1,36
301,977	1,35
302,432	1,33
302,887	1,32
303,342	1,33
303,797	1,32
304,252	1,3
304,707	1,29
305,161	1,29
305,616	1,27
306,071	1,24
306,525	1,25
306,98	1,24
307,434	1,22
307,889	1,2
308,343	1,19
308,797	1,18
309,252	1,17
309,706	1,16
310,16	1,14
310,614	1,14
311,068	1,12
311,522	1,1
311,976	1,09
312,43	1,09
312,884	1,08
313,338	1,07
313,792	1,05
314,245	1,05
314,699	1,03
315,153	1,02
315,606	1,01
316,06	1
316,513	0,99
316,967	0,98
317,42	0,97
317,873	0,96
318,327	0,95
318,78	0,94
319,233	0,94
319,686	0,93
320,139	0,92
320,592	0,91
321,045	0,9
321,498	0,88
321,951	0,88
322,404	0,87
322,857	0,86
323,31	0,85
323,762	0,84
324,215	0,83
324,667	0,82
325,12	0,82
325,573	0,81
326,025	0,8
326,477	0,8
326,93	0,8
327,382	0,79
327,834	0,79
328,286	0,78
328,739	0,78
329,191	0,78
329,643	0,77
330,095	0,75
330,547	0,74
330,999	0,75
331,45	0,73
331,902	0,72
332,354	0,71
332,806	0,72
333,257	0,71
333,709	0,69
334,16	0,7
334,612	0,69
335,063	0,69
335,515	0,68
335,966	0,67
336,417	0,67
336,869	0,67
337,32	0,66
337,771	0,65
338,222	0,64
338,673	0,64
339,124	0,64
339,575	0,63
340,026	0,62
340,477	0,62
340,928	0,62
341,378	0,6
341,829	0,6
342,28	0,6
342,73	0,59
343,181	0,58
343,631	0,59
344,082	0,58
344,532	0,57
344,982	0,57
345,433	0,57
345,883	0,56
346,333	0,56
346,783	0,55
347,233	0,56
347,683	0,55
348,133	0,55
348,583	0,55
349,033	0,54
349,483	0,53
349,933	0,53
350,383	0,52
350,832	0,53
351,282	0,52
351,732	0,52
352,181	0,52
352,631	0,51
353,08	0,5
353,529	0,5
353,979	0,5
354,428	0,5
354,877	0,49
355,327	0,49
355,776	0,48
356,225	0,48
356,674	0,48
357,123	0,47
357,572	0,47
358,021	0,46
358,469	0,46
358,918	0,46
359,367	0,46
359,816	0,45
360,264	0,45
360,713	0,45
361,161	0,45
361,61	0,44
362,058	0,44
362,507	0,44
362,955	0,44
363,403	0,43
363,852	0,43
364,3	0,42
364,748	0,42
365,196	0,42
365,644	0,42
366,092	0,42
366,54	0,41
366,988	0,41
367,436	0,41
367,883	0,4
368,331	0,4
368,779	0,4
369,226	0,39
369,674	0,39
370,121	0,39
370,569	0,39
371,016	0,38
371,464	0,38
371,911	0,38
372,358	0,38
372,805	0,38
373,253	0,37
373,7	0,37
374,147	0,37
374,594	0,37
375,041	0,36
375,488	0,36
375,935	0,36
376,381	0,36
376,828	0,36
377,275	0,35
377,721	0,35
378,168	0,34
378,615	0,34
379,061	0,34
379,508	0,34
379,954	0,34
380,4	0,34
380,847	0,33
381,293	0,33
381,739	0,33
382,185	0,33
382,631	0,33
383,077	0,32
383,523	0,32
383,969	0,32
384,415	0,31
384,861	0,31
385,307	0,31
385,752	0,31
386,198	0,3
386,644	0,3
387,089	0,3
387,535	0,29
387,98	0,29
388,426	0,29
388,871	0,29
389,317	0,28
389,762	0,28
390,207	0,28
390,652	0,28
391,097	0,28
391,542	0,28
391,987	0,28
392,432	0,27
392,877	0,27
393,322	0,27
393,767	0,27
394,212	0,27
394,656	0,26
395,101	0,26
395,546	0,26
395,99	0,25
396,435	0,25
396,879	0,25
397,324	0,25
397,768	0,25
398,212	0,24
398,657	0,24
399,101	0,24
399,545	0,25
399,989	0,24
400,433	0,24
400,877	0,24
401,321	0,24
401,765	0,23
402,209	0,23
402,653	0,23
403,096	0,23
403,54	0,22
403,984	0,22
404,427	0,23
404,871	0,22
405,314	0,22
405,758	0,22
406,201	0,22
406,644	0,22
407,088	0,21
407,531	0,21
407,974	0,21
408,417	0,21
408,86	0,21
409,303	0,2
409,746	0,2
410,189	0,2
410,632	0,2
411,075	0,2
411,517	0,2
411,96	0,2
412,403	0,2
412,845	0,2
413,288	0,2
413,73	0,19
414,173	0,19
414,615	0,19
415,058	0,19
415,5	0,18
415,942	0,19
416,384	0,18
416,826	0,18
417,268	0,18
417,711	0,17
418,152	0,18
418,594	0,17
419,036	0,17
419,478	0,17
419,92	0,17
420,362	0,17
420,803	0,17
421,245	0,17
421,686	0,17
422,128	0,17
422,569	0,17
423,011	0,17
423,452	0,16
423,893	0,16
424,335	0,16
424,776	0,16
425,217	0,16
425,658	0,16
426,099	0,16
426,54	0,16
426,981	0,15
427,422	0,15
427,863	0,15
428,304	0,15
428,744	0,15
429,185	0,15
429,626	0,15
430,066	0,15
430,507	0,15
430,947	0,15
431,388	0,15
431,828	0,15
432,268	0,14
432,709	0,14
433,149	0,14
433,589	0,14
434,029	0,14
434,469	0,14
434,909	0,14
435,349	0,14
435,789	0,14
436,229	0,13
436,669	0,14
437,108	0,14
437,548	0,13
437,988	0,14
438,427	0,13
438,867	0,13
439,306	0,13
439,746	0,13
440,185	0,12
440,624	0,12
441,064	0,12
441,503	0,12
441,942	0,12
442,381	0,12
442,82	0,12
443,259	0,12
443,698	0,12
444,137	0,12
444,576	0,12
445,015	0,12
445,453	0,11
445,892	0,12
446,331	0,11
446,769	0,11
447,208	0,11
447,646	0,11
448,085	0,11
448,523	0,11
448,961	0,11
449,4	0,11
449,838	0,11
450,276	0,11
450,714	0,11
451,152	0,11
451,59	0,11
452,028	0,11
452,466	0,11
452,904	0,1
453,342	0,11
453,779	0,1
454,217	0,1
454,655	0,1
455,092	0,1
455,53	0,1
455,967	0,1
456,405	0,1
456,842	0,1
457,279	0,1
457,717	0,1
458,154	0,1
458,591	0,1
459,028	0,1
459,465	0,1
459,902	0,09
460,339	0,09
460,776	0,09
461,213	0,1
461,65	0,09
462,086	0,09
462,523	0,09
462,96	0,09
463,396	0,09
463,833	0,09
464,269	0,09
464,706	0,09
465,142	0,09
465,578	0,09
466,015	0,09
466,451	0,09
466,887	0,08
467,323	0,08
467,759	0,08
468,195	0,08
468,631	0,08
469,067	0,08
469,503	0,08
469,939	0,08
470,374	0,08
470,81	0,08
471,246	0,08
471,681	0,08
472,117	0,07
472,552	0,08
472,988	0,08
473,423	0,08
473,858	0,07
474,294	0,07
474,729	0,08
475,164	0,07
475,599	0,08
476,034	0,07
476,469	0,07
476,904	0,07
477,339	0,07
477,774	0,07
478,208	0,07
478,643	0,07
479,078	0,07
479,512	0,07
479,947	0,07
480,381	0,07
480,816	0,07
481,25	0,06
481,685	0,07
482,119	0,07
482,553	0,07
482,987	0,07
483,421	0,07
483,856	0,07
484,29	0,06
484,724	0,06
485,157	0,06
485,591	0,06
486,025	0,06
486,459	0,07
486,893	0,06
487,326	0,06
487,76	0,06
488,193	0,06
488,627	0,06
489,06	0,06
489,494	0,06
489,927	0,05
490,36	0,06
490,794	0,06
491,227	0,05
491,66	0,05
492,093	0,06
492,526	0,06
492,959	0,06
493,392	0,05
493,825	0,05
494,257	0,05
494,69	0,06
495,123	0,05
495,555	0,05
495,988	0,05
496,421	0,05
496,853	0,05
497,285	0,05
497,718	0,05
498,15	0,05
498,582	0,05
499,015	0,04
499,447	0,05
499,879	0,05
500,311	0,04
500,743	0,05
501,175	0,05
501,607	0,04
502,038	0,05
502,47	0,05
502,902	0,04
503,334	0,05
503,765	0,05
504,197	0,05
504,628	0,04
505,06	0,04
505,491	0,05
505,922	0,04
506,354	0,04
506,785	0,04
507,216	0,04
507,647	0,04
508,078	0,04
508,509	0,04
508,94	0,04
509,371	0,04
509,802	0,04
510,233	0,04
510,664	0,04
511,094	0,04
511,525	0,04
511,955	0,04
512,386	0,04
512,816	0,04
513,247	0,04
513,677	0,04
514,108	0,04
514,538	0,04
514,968	0,04
515,398	0,04
515,828	0,04
516,258	0,04
516,688	0,04
517,118	0,04
517,548	0,04
517,978	0,04
518,408	0,04
518,837	0,04
519,267	0,04
519,697	0,04
520,126	0,04
520,556	0,04
520,985	0,04
521,415	0,04
521,844	0,04
522,273	0,04
522,702	0,04
523,132	0,04
523,561	0,04
523,99	0,03
524,419	0,04
524,848	0,04
525,277	0,03
525,705	0,03
526,134	0,04
526,563	0,04
526,992	0,03
527,42	0,04
527,849	0,04
528,277	0,03
528,706	0,04
529,134	0,04
529,563	0,03
529,991	0,04
530,419	0,03
530,847	0,04
531,275	0,04
531,703	0,03
532,131	0,03
532,559	0,03
532,987	0,03
533,415	0,03
533,843	0,03
534,271	0,03
534,698	0,03
535,126	0,03
535,554	0,03
535,981	0,03
536,409	0,03
536,836	0,03
537,264	0,03
537,691	0,03
538,118	0,03
538,545	0,03
538,972	0,04
539,4	0,03
539,827	0,03
540,254	0,03
540,681	0,03
541,107	0,03
541,534	0,03
541,961	0,03
542,388	0,03
542,814	0,03
543,241	0,03
543,667	0,03
544,094	0,03
544,52	0,03
544,947	0,03
545,373	0,03
545,799	0,03
546,226	0,03
546,652	0,03
547,078	0,03
547,504	0,03
547,93	0,03
548,356	0,04
548,782	0,03
549,208	0,03
549,633	0,03
550,059	0,03
550,485	0,03
550,91	0,03
551,336	0,03
551,761	0,03
552,187	0,03
552,612	0,03
553,038	0,03
553,463	0,03
553,888	0,03
554,313	0,03
554,738	0,03
555,163	0,03
555,588	0,03
556,013	0,03
556,438	0,03
556,863	0,03
557,288	0,03
557,713	0,03
558,137	0,03
558,562	0,03
558,986	0,03
559,411	0,03
559,835	0,03
560,26	0,03
560,684	0,03
561,108	0,03
561,533	0,03
561,957	0,03
562,381	0,03
562,805	0,03
563,229	0,03
563,653	0,03
564,077	0,03
564,501	0,03
564,925	0,03
565,348	0,03
565,772	0,03
566,196	0,03
566,619	0,03
567,043	0,03
567,466	0,03
567,89	0,03
568,313	0,03
568,736	0,03
569,159	0,03
569,583	0,03
570,006	0,03
570,429	0,03
570,852	0,03
571,275	0,03
571,698	0,03
572,12	0,03
572,543	0,03
572,966	0,03
573,389	0,03
573,811	0,03
574,234	0,03
574,656	0,03
575,079	0,03
575,501	0,03
575,924	0,03
576,346	0,03
576,768	0,03
577,19	0,03
577,612	0,03
578,034	0,03
578,456	0,03
578,878	0,03
579,3	0,03
579,722	0,02
580,144	0,02
580,566	0,02
580,987	0,02
581,409	0,03
581,83	0,02
582,252	0,03
582,673	0,03
583,095	0,03
583,516	0,02
583,937	0,02
584,359	0,02
584,78	0,02
585,201	0,03
585,622	0,03
586,043	0,03
586,464	0,03
586,885	0,03
587,306	0,02
587,726	0,02
588,147	0,02
588,568	0,03
588,988	0,03
589,409	0,03
589,83	0,03
590,25	0,02
590,67	0,02
591,091	0,03
591,511	0,03
591,931	0,03
592,351	0,03
592,771	0,03
593,192	0,03
593,612	0,03
594,031	0,03
594,451	0,03
594,871	0,03
595,291	0,03
595,711	0,02
596,13	0,03
596,55	0,03
596,969	0,03
597,389	0,03
597,808	0,03
598,228	0,03
598,647	0,03
599,066	0,03
599,486	0,03
599,905	0,03
600,324	0,03
600,743	0,03
601,162	0,03
601,581	0,03
602	0,03
602,418	0,02
602,837	0,03
603,256	0,03
603,674	0,03
604,093	0,03
604,512	0,03
604,93	0,03
605,349	0,03
605,767	0,03
606,185	0,03
606,603	0,03
607,022	0,03
607,44	0,03
607,858	0,03
608,276	0,03
608,694	0,02
609,112	0,02
609,53	0,02
609,947	0,02
610,365	0,02
610,783	0,03
611,2	0,03
611,618	0,03
612,036	0,03
612,453	0,03
612,87	0,03
613,288	0,03
613,705	0,03
614,122	0,03
614,539	0,03
614,957	0,03
615,374	0,03
615,791	0,03
616,208	0,03
616,624	0,03
617,041	0,03
617,458	0,03
617,875	0,03
618,291	0,03
618,708	0,03
619,125	0,03
619,541	0,03
619,958	0,03
620,374	0,03
620,79	0,03
621,206	0,03
621,623	0,03
622,039	0,03
622,455	0,03
622,871	0,03
623,287	0,03
623,703	0,03
624,119	0,03
624,535	0,03
624,95	0,03
625,366	0,03
625,782	0,03
626,197	0,03
626,613	0,03
627,028	0,03
627,444	0,03
627,859	0,03
628,274	0,04
628,69	0,03
629,105	0,03
629,52	0,03
629,935	0,03
630,35	0,03
630,765	0,03
631,18	0,03
631,595	0,04
632,009	0,03
632,424	0,04
632,839	0,04
633,253	0,03
633,668	0,03
634,082	0,03
634,497	0,04
634,911	0,03
635,326	0,04
635,74	0,04
636,154	0,04
636,568	0,04
636,982	0,04
637,396	0,04
637,81	0,04
638,224	0,03
638,638	0,04
639,052	0,04
639,466	0,04
639,879	0,04
640,293	0,04
640,707	0,04
641,12	0,04
641,534	0,04
641,947	0,03
642,36	0,04
642,774	0,04
643,187	0,04
643,6	0,04
644,013	0,04
644,426	0,04
644,839	0,04
645,252	0,04
645,665	0,04
646,078	0,04
646,491	0,04
646,904	0,04
647,316	0,04
647,729	0,04
648,141	0,04
648,554	0,04
648,966	0,04
649,379	0,04
649,791	0,04
650,203	0,04
650,615	0,04
651,028	0,03
651,44	0,03
651,852	0,03
652,264	0,04
652,676	0,04
653,087	0,04
653,499	0,04
653,911	0,04
654,323	0,03
654,734	0,03
655,146	0,04
655,557	0,04
655,969	0,03
656,38	0,04
656,792	0,04
657,203	0,04
657,614	0,03
658,025	0,02
658,436	0,02
658,847	0,03
659,258	0,03
659,669	0,03
660,08	0,03
660,491	0,03
660,902	0,03
661,312	0,04
661,723	0,03
662,134	0,03
662,544	0,03
662,955	0,03
663,365	0,04
663,775	0,03
664,186	0,03
664,596	0,03
665,006	0,04
665,416	0,03
665,826	0,03
666,236	0,03
666,646	0,03
667,056	0,03
667,466	0,03
667,876	0,03
668,286	0,03
668,695	0,03
669,105	0,03
669,514	0,03
669,924	0,03
670,333	0,03
670,743	0,03
671,152	0,03
671,561	0,03
671,97	0,03
672,38	0,03
672,789	0,03
673,198	0,03
673,607	0,03
674,016	0,03
674,424	0,03
674,833	0,03
675,242	0,03
675,651	0,03
676,059	0,03
676,468	0,03
676,876	0,03
677,285	0,03
677,693	0,03
678,101	0,03
678,51	0,03
678,918	0,03
679,326	0,03
679,734	0,03
680,142	0,03
680,55	0,03
680,958	0,03
681,366	0,03
681,774	0,03
682,181	0,03
682,589	0,03
682,997	0,03
683,404	0,03
683,812	0,03
684,219	0,03
684,627	0,03
685,034	0,03
685,441	0,03
685,848	0,03
686,256	0,03
686,663	0,03
687,07	0,03
687,477	0,03
687,884	0,03
688,29	0,03
688,697	0,03
689,104	0,03
689,511	0,03
689,917	0,03
690,324	0,03
690,73	0,03
691,137	0,03
691,543	0,03
691,95	0,03
692,356	0,03
692,762	0,03
693,168	0,03
693,574	0,03
693,98	0,03
694,386	0,03
694,792	0,03
695,198	0,02
695,604	0,03
696,01	0,03
696,415	0,03
696,821	0,03
697,227	0,03
697,632	0,03
698,038	0,02
698,443	0,03
698,848	0,03
699,254	0,03
699,659	0,03
700,064	0,02
700,469	0,02
700,874	0,03
701,279	0,02
701,684	0,03
702,089	0,02
702,494	0,03
702,898	0,02
703,303	0,03
703,708	0,03
704,112	0,03
704,517	0,02
704,921	0,02
705,326	0,03
705,73	0,02
706,134	0,03
706,538	0,02
706,943	0,03
707,347	0,03
707,751	0,03
708,155	0,03
708,559	0,03
708,963	0,02
709,366	0,02
709,77	0,02
710,174	0,02
710,577	0,02
710,981	0,03
711,384	0,02
711,788	0,02
712,191	0,03
712,595	0,02
712,998	0,03
713,401	0,03
713,804	0,02
714,207	0,03
714,61	0,02
715,013	0,02
715,416	0,02
715,819	0,02
716,222	0,02
716,625	0,02
717,027	0,02
717,43	0,02
717,833	0,02
718,235	0,02
718,638	0,02
719,04	0,02
719,442	0,02
719,844	0,02
720,247	0,02
720,649	0,02
721,051	0,02
721,453	0,02
721,855	0,02
722,257	0,02
722,659	0,02
723,06	0,02
723,462	0,03
723,864	0,02
724,265	0,02
724,667	0,02
725,069	0,02
725,47	0,02
725,871	0,02
726,273	0,02
726,674	0,02
727,075	0,02
727,476	0,02
727,877	0,02
728,278	0,02
728,679	0,02
729,08	0,02
729,481	0,02
729,882	0,02
730,282	0,02
730,683	0,02
731,084	0,02
731,484	0,02
731,885	0,02
732,285	0,02
732,686	0,02
733,086	0,02
733,486	0,02
733,886	0,02
734,286	0,02
734,686	0,02
735,086	0,02
735,486	0,02
735,886	0,02
736,286	0,02
736,686	0,02
737,086	0,02
737,485	0,02
737,885	0,02
738,284	0,02
738,684	0,02
739,083	0,02
739,482	0,02
739,882	0,02
740,281	0,02
740,68	0,02
741,079	0,02
741,478	0,02
741,877	0,02
742,276	0,02
742,675	0,02
743,074	0,02
743,473	0,02
743,871	0,02
744,27	0,02
744,668	0,02
745,067	0,02
745,465	0,02
745,864	0,02
746,262	0,02
746,66	0,02
747,059	0,02
747,457	0,02
747,855	0,02
748,253	0,02
748,651	0,02
749,049	0,02
749,447	0,02
749,844	0,02
750,242	0,02
750,64	0,02
751,037	0,02
751,435	0,02
751,832	0,02
752,23	0,02
752,627	0,02
753,024	0,02
753,422	0,02
753,819	0,02
754,216	0,02
754,613	0,02
755,01	0,02
755,407	0,02
755,804	0,02
756,201	0,02
756,597	0,02
756,994	0,02
757,391	0,02
757,787	0,02
758,184	0,02
758,58	0,02
758,977	0,02
759,373	0,02
759,769	0,02
760,166	0,02
760,562	0,02
760,958	0,02
761,354	0,02
761,75	0,02
762,146	0,02
762,542	0,02
762,937	0,02
763,333	0,02
763,729	0,02
764,124	0,02
764,52	0,02
764,915	0,02
765,311	0,02
765,706	0,02
766,101	0,02
766,497	0,02
766,892	0,02
767,287	0,02
767,682	0,02
768,077	0,02
768,472	0,02
768,867	0,02
769,262	0,02
769,657	0,02
770,051	0,02
770,446	0,02
770,84	0,02
771,235	0,02
771,629	0,02
772,024	0,02
772,418	0,02
772,812	0,02
773,207	0,02
773,601	0,02
773,995	0,02
774,389	0,02
774,783	0,02
775,177	0,02
775,571	0,02
775,964	0,02
776,358	0,02
776,752	0,02
777,145	0,02
777,539	0,02
777,932	0,02
778,326	0,02
778,719	0,02
779,113	0,02
779,506	0,02
779,899	0,02
780,292	0,02
780,685	0,02
781,078	0,02
781,471	0,02
781,864	0,02
782,257	0,02
782,65	0,02
783,042	0,02
783,435	0,02
783,827	0,02
784,22	0,02
784,612	0,02
785,005	0,02
785,397	0,02
785,789	0,02
786,182	0,02
786,574	0,02
786,966	0,02
787,358	0,02
787,75	0,02
788,142	0,02
788,534	0,02
788,925	0,02
789,317	0,02
789,709	0,02
790,1	0,02
790,492	0,02
790,883	0,02
791,275	0,02
791,666	0,02
792,057	0,02
792,449	0,02
792,84	0,02
793,231	0,02
793,622	0,02
794,013	0,02
794,404	0,02
794,795	0,02
795,185	0,02
795,576	0,02
795,967	0,02
796,357	0,02
796,748	0,02
797,138	0,02
797,529	0,02
797,919	0,02
798,31	0,02
798,7	0,02
799,09	0,02
799,48	0,02
799,87	0,02
800,26	0,02
800,65	0,02
801,04	0,02
801,43	0,02
801,82	0,02
802,209	0,02
802,599	0,02
802,988	0,02
803,378	0,02
803,767	0,02
804,157	0,02
804,546	0,02
804,935	0,02
805,325	0,02
805,714	0,02
806,103	0,02
806,492	0,02
806,881	0,02
807,27	0,02
807,658	0,02
808,047	0,02
808,436	0,02
808,824	0,02
809,213	0,02
809,602	0,02
809,99	0,02
810,378	0,02
810,767	0,02
811,155	0,02
811,543	0,02
811,931	0,02
812,319	0,02
812,708	0,02
813,095	0,02
813,483	0,02
813,871	0,02
814,259	0,02
814,647	0,02
815,034	0,02
815,422	0,02
815,809	0,02
816,197	0,02
816,584	0,02
816,972	0,02
817,359	0,02
817,746	0,02
818,133	0,02
818,52	0,02
818,907	0,02
819,294	0,02
819,681	0,02
820,068	0,02
820,455	0,02
820,842	0,02
821,228	0,02
821,615	0,02
822,002	0,02
822,388	0,02
822,774	0,02
823,161	0,02
823,547	0,02
823,933	0,02
824,319	0,02
824,706	0,02
825,092	0,02
825,478	0,02
825,863	0,02
826,249	0,02
826,635	0,02
827,021	0,02
827,407	0,02
827,792	0,02
828,178	0,02
828,563	0,02
828,949	0,02
829,334	0,01
829,719	0,02
830,104	0,02
830,49	0,02
830,875	0,02
831,26	0,02
831,645	0,02
832,03	0,02
832,415	0,02
832,799	0,02
833,184	0,02
833,569	0,02
833,953	0,02
834,338	0,02
834,722	0,02
835,107	0,02
835,491	0,02
835,875	0,02
836,26	0,02
836,644	0,02
837,028	0,02
837,412	0,02
837,796	0,02
838,18	0,02
838,564	0,02
838,948	0,02
839,331	0,02
839,715	0,02
840,099	0,02
840,482	0,02
840,866	0,02
841,249	0,02
841,632	0,02
842,016	0,02
842,399	0,02
842,782	0,02
843,165	0,02
843,548	0,02
843,931	0,02
844,314	0,02
844,697	0,02
845,08	0,02
845,463	0,02
845,845	0,02
846,228	0,02
846,61	0,02
846,993	0,02
847,375	0,02
847,758	0,02
848,14	0,02
848,522	0,02
848,904	0,02
849,286	0,02
849,668	0,03
850,05	0,02
850,432	0,03
850,814	0,02
851,196	0,03
851,578	0,03
851,959	0,03
852,341	0,03
852,722	0,03
853,104	0,03
853,485	0,03
853,867	0,03
854,248	0,03
854,629	0,03
855,01	0,03
855,391	0,03
855,773	0,03
856,153	0,03
856,534	0,03
856,915	0,03
857,296	0,03
857,677	0,03
858,057	0,03
858,438	0,03
858,819	0,03
859,199	0,04
859,579	0,03
859,96	0,03
860,34	0,03
860,72	0,03
861,1	0,03
861,48	0,03
861,86	0,03
862,24	0,03
862,62	0,04
863	0,04
863,38	0,04
863,76	0,04
864,139	0,03
864,519	0,03
864,898	0,04
865,278	0,04
865,657	0,04
866,037	0,04
866,416	0,04
866,795	0,04
867,174	0,04
867,553	0,04
867,932	0,04
868,311	0,04
868,69	0,04
869,069	0,04
869,448	0,04
869,826	0,04
870,205	0,04
870,584	0,04
870,962	0,04
871,341	0,05
871,719	0,05
872,097	0,05
872,475	0,05
872,854	0,04
873,232	0,04
873,61	0,05
873,988	0,05
874,366	0,05
874,744	0,05
875,121	0,05
875,499	0,04
875,877	0,05
876,255	0,05
876,632	0,04
877,01	0,05
877,387	0,05
877,764	0,05
878,142	0,05
878,519	0,05
878,896	0,05
879,273	0,05
879,65	0,05
880,027	0,05
880,404	0,05
880,781	0,05
881,158	0,05
881,534	0,05
881,911	0,05
882,288	0,05
882,664	0,05
883,041	0,05
883,417	0,06
883,793	0,05
884,17	0,05
884,546	0,05
884,922	0,05
885,298	0,06
885,674	0,05
886,05	0,05
886,426	0,06
886,802	0,06
887,178	0,06
887,553	0,06
887,929	0,06
888,305	0,06
888,68	0,06
889,056	0,05
889,431	0,06
889,806	0,06
890,182	0,06
890,557	0,06
890,932	0,06
891,307	0,06
891,682	0,06
892,057	0,06
892,432	0,06
892,807	0,05
893,181	0,06
893,556	0,06
893,931	0,06
894,305	0,06
894,68	0,06
895,054	0,05
895,428	0,05
895,803	0,06
896,177	0,06
896,551	0,06
896,925	0,06
897,299	0,06
897,673	0,06
898,047	0,06
898,421	0,06
898,795	0,06
899,169	0,06
899,542	0,06
899,916	0,06
900,289	0,05
900,663	0,06
901,036	0,06
901,41	0,06
901,783	0,06
902,156	0,06
902,529	0,06
902,902	0,05
903,275	0,06
903,648	0,06
904,021	0,06
904,394	0,06
904,767	0,06
905,139	0,05
905,512	0,05
905,885	0,06
906,257	0,05
906,629	0,06
907,002	0,06
907,374	0,06
907,746	0,05
908,119	0,06
908,491	0,06
908,863	0,06
909,235	0,06
909,607	0,05
909,978	0,06
910,35	0,05
910,722	0,06
911,094	0,05
911,465	0,06
911,837	0,05
912,208	0,05
912,58	0,06
912,951	0,05
913,322	0,06
913,693	0,05
914,065	0,05
914,436	0,05
914,807	0,07
915,178	0,06
915,548	0,05
915,919	0,06
916,29	0,06
916,661	0,05
917,031	0,05
917,402	0,05
917,772	0,05
918,143	0,06
918,513	0,05
918,884	0,05
919,254	0,05
919,624	0,05
919,994	0,05
920,364	0,06
920,734	0,05
921,104	0,05
921,474	0,05
921,844	0,05
922,213	0,05
922,583	0,05
922,953	0,05
923,322	0,05
923,692	0,05
924,061	0,05
924,43	0,05
924,8	0,05
925,169	0,05
925,538	0,06
925,907	0,06
926,276	0,05
926,645	0,05
927,014	0,05
927,383	0,05
927,751	0,05
928,12	0,06
928,489	0,05
928,857	0,06
929,226	0,05
929,594	0,06
929,962	0,06
930,331	0,05
930,699	0,05
931,067	0,05
931,435	0,06
931,803	0,05
932,171	0,05
932,539	0,05
932,907	0,05
933,275	0,05
933,642	0,05
934,01	0,06
934,378	0,06
934,745	0,05
935,113	0,04
935,48	0,05
935,847	0,06
936,215	0,05
936,582	0,06
936,949	0,06
937,316	0,04
937,683	0,06
938,05	0,05
938,417	0,05
938,783	0,06
939,15	0,05
939,517	0,06
939,883	0,06
940,25	0,06
940,616	0,05
940,983	0,05
941,349	0,05
941,715	0,07
942,082	0,05
942,448	0,07
942,814	0,07
943,18	0,07
943,546	0,05
943,912	0,06
944,277	0,05
944,643	0,06
945,009	0,06
945,374	0,06
945,74	0,06
946,105	0,06
946,471	0,06
946,836	0,06
947,202	0,06
947,567	0,07
947,932	0,05
948,297	0,05
948,662	0,05
949,027	0,07
949,392	0,06
949,757	0,07
950,121	0,08
950,486	0,06
950,851	0,06
951,215	0,04
951,58	0,06
951,944	0,07
952,309	0,06
952,673	0,07
953,037	0,06
953,401	0,06
953,765	0,05
954,129	0,06
954,493	0,07
954,857	0,06
955,221	0,07
955,585	0,05
955,949	0,08
956,312	0,04
956,676	0,06
957,039	0,07
957,403	0,06
957,766	0,07
958,13	0,04
958,493	0,08
958,856	0,05
959,219	0,05
959,582	0,04
959,945	0,07
960,308	0,07
960,671	0,07
961,034	0,07
961,396	0,07
961,759	0,06
962,122	0,1
962,484	0,07
962,847	0,06
963,209	0,05
963,571	0,06
963,934	0,05
964,296	0,06
964,658	0,07
965,02	0,06
965,382	0,06
965,744	0,07
966,106	0,05
966,468	0,06
966,829	0,04
967,191	0,05
967,553	0,06
967,914	0,07
968,276	0,03
968,637	0,04
968,998	0,06
969,36	0,04
969,721	0,05
970,082	0,05
970,443	0,04
970,804	0,06
971,165	0,07
971,526	0,06
971,887	0,02
972,247	0,06
972,608	0,06
972,969	0,04
973,329	0,06
973,69	0,05
974,05	0,04
974,41	0,03
974,771	0,04
975,131	0,06
975,491	0,03
975,851	0,03
976,211	0,01
976,571	0,06
976,931	0,03
977,291	0,05
977,65	0,02
978,01	0,05
978,37	0,04
978,729	0,01
979,089	0,02
979,448	0,05
979,807	0,05
980,167	0,03
980,526	0,04
980,885	0,06
981,244	0,06
981,603	0,06
981,962	0,03
982,321	0,04
982,68	0,05
983,038	0,05
983,397	0,04
983,756	0,04
984,114	0,03
984,473	0,03
984,831	-0
985,19	0,02
985,548	0,03
985,906	0,02
986,264	0,04
986,622	-0
986,98	0,06
987,338	-0
987,696	0,04
988,054	0,05
988,412	0
988,769	0,01
989,127	0,01
989,484	0,03
989,842	-0
990,199	0,01
990,557	-0,02
990,914	-0,02
991,271	0,04
991,628	0,03
991,985	0,03
992,342	-0
992,699	0,02
993,056	0,01
993,413	-0,01
993,77	0,03
994,126	0,01
994,483	-0,02
994,84	0,05
995,196	-0,01
995,552	-0
995,909	-0,02
996,265	0,01
996,621	0,03
996,977	-0,01
997,333	0,02
997,689	0,04
998,045	-0,03
998,401	0,02
998,757	-0,02
999,113	-0,03
999,468	-0,04
999,824	-0,01
1000,18	0,01
1000,535	-0
1000,89	-0,01
1001,246	0,02
1001,601	-0
1001,956	-0,01
1002,311	-0,01
1002,666	0,04
1003,021	-0
1003,376	0,02
1003,731	-0,04
1004,086	0,03
1004,441	0,02
1004,795	0,03
1005,15	-0,03
1005,505	0,01
1005,859	-0,02
1006,213	0,02
1006,568	-0,03
1006,922	0,01
1007,276	0,04
1007,63	0,01
1007,984	0
1008,338	-0,06
1008,692	0,01
1009,046	0
1009,4	-0,05
1009,754	-0,01
1010,107	-0,04
1010,461	0,04
1010,814	-0,05
1011,168	-0,09
1011,521	0,02
1011,874	-0,08
1012,228	0,01
1012,581	-0,02
1012,934	0,05
1013,287	-0,01
1013,64	0,03
1013,993	0,05
1014,346	0,01
1014,699	-0,03
1015,051	-0,03
1015,404	0,02
1015,756	0,03
1016,109	0,05
1016,461	-0,05
1016,814	0,05
1017,166	0,07
1017,518	-0,07
1017,87	-0,02
1018,223	-0,03
1018,575	0,03
1018,927	0,01
1019,278	-0,01
1019,63	-0,03
1019,982	-0,01
1020,334	-0,08
1020,685	0,02
1021,037	0,01
1021,388	-0,02
1021,74	-0,03
1022,091	0,01
1022,442	-0,04
1022,794	-0,03
1023,145	0
1023,496	0
1023,847	0,03
1024,198	-0,02
1024,549	-0,03
1024,9	0,05
1025,25	-0,04
1025,601	-0,05
1025,952	-0,08
1026,302	-0,01
1026,653	-0,06
1027,003	0,02
1027,353	0,06
1027,704	-0,04
1028,054	-0,03
1028,404	-0,03
1028,754	-0
1029,104	-0,05
1029,454	-0,06
1029,804	-0,03
1030,154	-0,08
1030,503	-0,08
1030,853	-0,08
