Data from Absorbance__0__16-43-57-662.txt Node

Date: Wed May 05 16:43:57 CEST 2021
User: thoma
Spectrometer: FLMS06037
Trigger mode: 0
Integration Time (sec): 1,451500E-1
Scans to average: 10
Electric dark correction enabled: true
Nonlinearity correction enabled: false
Boxcar width: 0
XAxis mode: Wavelengths
Number of Pixels in Spectrum: 2048
>>>>>Begin Spectral Data<<<<<
187,642	0,82
188,109	0,82
188,576	0,82
189,043	-0
189,51	-0,42
189,976	-0,63
190,443	-0,25
190,91	0,14
191,376	-0
191,843	-0
192,309	-0
192,776	-0
193,242	-0,01
193,708	-0
194,175	0,1
194,641	0,16
195,107	-0,1
195,573	-0
196,039	-0,25
196,505	-0
196,971	0,39
197,437	0,6
197,903	-0
198,369	0,12
198,835	0,1
199,301	0,09
199,766	0,09
200,232	0,08
200,698	0,11
201,163	0,09
201,629	0,1
202,094	0,09
202,56	0,1
203,025	0,1
203,49	0,09
203,956	0,08
204,421	0,09
204,886	0,1
205,351	0,1
205,816	0,09
206,281	0,09
206,746	0,09
207,211	0,1
207,676	0,1
208,141	0,1
208,606	0,12
209,071	0,11
209,536	0,11
210	0,09
210,465	0,13
210,929	0,13
211,394	0,12
211,859	0,14
212,323	0,15
212,787	0,14
213,252	0,16
213,716	0,17
214,18	0,18
214,645	0,2
215,109	0,19
215,573	0,2
216,037	0,21
216,501	0,22
216,965	0,23
217,429	0,23
217,893	0,22
218,357	0,24
218,82	0,24
219,284	0,24
219,748	0,24
220,211	0,24
220,675	0,24
221,139	0,24
221,602	0,24
222,066	0,23
222,529	0,23
222,992	0,22
223,456	0,22
223,919	0,22
224,382	0,21
224,845	0,21
225,308	0,21
225,772	0,2
226,235	0,2
226,698	0,2
227,16	0,19
227,623	0,18
228,086	0,18
228,549	0,18
229,012	0,18
229,474	0,17
229,937	0,17
230,4	0,16
230,862	0,16
231,325	0,16
231,787	0,16
232,25	0,15
232,712	0,15
233,174	0,15
233,637	0,14
234,099	0,14
234,561	0,14
235,023	0,13
235,485	0,13
235,947	0,13
236,409	0,13
236,871	0,13
237,333	0,12
237,795	0,12
238,257	0,12
238,718	0,12
239,18	0,12
239,642	0,12
240,103	0,12
240,565	0,12
241,026	0,12
241,488	0,11
241,949	0,12
242,411	0,11
242,872	0,11
243,333	0,12
243,795	0,11
244,256	0,12
244,717	0,11
245,178	0,11
245,639	0,11
246,1	0,11
246,561	0,11
247,022	0,12
247,483	0,12
247,943	0,11
248,404	0,11
248,865	0,11
249,325	0,11
249,786	0,11
250,247	0,11
250,707	0,12
251,168	0,12
251,628	0,12
252,088	0,12
252,549	0,12
253,009	0,12
253,469	0,12
253,929	0,12
254,389	0,12
254,849	0,12
255,309	0,12
255,769	0,12
256,229	0,12
256,689	0,12
257,149	0,12
257,609	0,12
258,069	0,12
258,528	0,12
258,988	0,12
259,448	0,12
259,907	0,13
260,367	0,12
260,826	0,13
261,285	0,12
261,745	0,12
262,204	0,12
262,663	0,13
263,122	0,13
263,582	0,12
264,041	0,13
264,5	0,13
264,959	0,12
265,418	0,13
265,877	0,13
266,336	0,13
266,794	0,13
267,253	0,13
267,712	0,13
268,171	0,13
268,629	0,13
269,088	0,13
269,546	0,13
270,005	0,13
270,463	0,13
270,922	0,13
271,38	0,12
271,838	0,13
272,296	0,13
272,755	0,12
273,213	0,12
273,671	0,12
274,129	0,12
274,587	0,12
275,045	0,12
275,503	0,12
275,961	0,12
276,418	0,12
276,876	0,12
277,334	0,12
277,791	0,12
278,249	0,11
278,707	0,11
279,164	0,11
279,622	0,11
280,079	0,11
280,536	0,11
280,994	0,11
281,451	0,11
281,908	0,11
282,365	0,11
282,822	0,11
283,28	0,11
283,737	0,1
284,193	0,1
284,65	0,1
285,107	0,1
285,564	0,1
286,021	0,1
286,478	0,1
286,934	0,1
287,391	0,1
287,848	0,1
288,304	0,1
288,761	0,1
289,217	0,09
289,673	0,09
290,13	0,09
290,586	0,09
291,042	0,09
291,498	0,09
291,955	0,09
292,411	0,09
292,867	0,09
293,323	0,09
293,779	0,09
294,235	0,09
294,69	0,09
295,146	0,09
295,602	0,09
296,058	0,08
296,513	0,08
296,969	0,08
297,424	0,08
297,88	0,08
298,335	0,08
298,791	0,08
299,246	0,08
299,701	0,08
300,157	0,08
300,612	0,08
301,067	0,07
301,522	0,07
301,977	0,07
302,432	0,07
302,887	0,07
303,342	0,07
303,797	0,07
304,252	0,07
304,707	0,07
305,161	0,07
305,616	0,07
306,071	0,07
306,525	0,07
306,98	0,06
307,434	0,06
307,889	0,06
308,343	0,06
308,797	0,06
309,252	0,06
309,706	0,06
310,16	0,06
310,614	0,06
311,068	0,06
311,522	0,06
311,976	0,06
312,43	0,06
312,884	0,06
313,338	0,06
313,792	0,06
314,245	0,05
314,699	0,06
315,153	0,05
315,606	0,05
316,06	0,06
316,513	0,05
316,967	0,06
317,42	0,06
317,873	0,05
318,327	0,05
318,78	0,05
319,233	0,05
319,686	0,05
320,139	0,05
320,592	0,05
321,045	0,05
321,498	0,05
321,951	0,05
322,404	0,05
322,857	0,05
323,31	0,05
323,762	0,05
324,215	0,04
324,667	0,05
325,12	0,05
325,573	0,05
326,025	0,06
326,477	0,06
326,93	0,06
327,382	0,06
327,834	0,05
328,286	0,05
328,739	0,05
329,191	0,05
329,643	0,05
330,095	0,05
330,547	0,05
330,999	0,05
331,45	0,05
331,902	0,05
332,354	0,05
332,806	0,05
333,257	0,05
333,709	0,05
334,16	0,05
334,612	0,05
335,063	0,05
335,515	0,05
335,966	0,04
336,417	0,04
336,869	0,05
337,32	0,05
337,771	0,05
338,222	0,05
338,673	0,05
339,124	0,05
339,575	0,05
340,026	0,05
340,477	0,05
340,928	0,04
341,378	0,04
341,829	0,04
342,28	0,05
342,73	0,05
343,181	0,05
343,631	0,04
344,082	0,05
344,532	0,04
344,982	0,05
345,433	0,04
345,883	0,04
346,333	0,04
346,783	0,04
347,233	0,04
347,683	0,05
348,133	0,04
348,583	0,04
349,033	0,04
349,483	0,04
349,933	0,04
350,383	0,04
350,832	0,04
351,282	0,04
351,732	0,04
352,181	0,04
352,631	0,04
353,08	0,04
353,529	0,04
353,979	0,04
354,428	0,04
354,877	0,04
355,327	0,04
355,776	0,04
356,225	0,04
356,674	0,04
357,123	0,04
357,572	0,04
358,021	0,04
358,469	0,04
358,918	0,04
359,367	0,04
359,816	0,04
360,264	0,04
360,713	0,04
361,161	0,04
361,61	0,04
362,058	0,04
362,507	0,04
362,955	0,04
363,403	0,04
363,852	0,04
364,3	0,04
364,748	0,04
365,196	0,04
365,644	0,03
366,092	0,04
366,54	0,04
366,988	0,04
367,436	0,04
367,883	0,04
368,331	0,04
368,779	0,04
369,226	0,04
369,674	0,04
370,121	0,04
370,569	0,04
371,016	0,04
371,464	0,04
371,911	0,04
372,358	0,04
372,805	0,03
373,253	0,04
373,7	0,04
374,147	0,04
374,594	0,03
375,041	0,04
375,488	0,04
375,935	0,03
376,381	0,04
376,828	0,03
377,275	0,04
377,721	0,03
378,168	0,04
378,615	0,03
379,061	0,03
379,508	0,03
379,954	0,03
380,4	0,03
380,847	0,03
381,293	0,03
381,739	0,03
382,185	0,03
382,631	0,03
383,077	0,04
383,523	0,04
383,969	0,04
384,415	0,03
384,861	0,03
385,307	0,03
385,752	0,03
386,198	0,03
386,644	0,03
387,089	0,03
387,535	0,03
387,98	0,03
388,426	0,03
388,871	0,04
389,317	0,04
389,762	0,03
390,207	0,03
390,652	0,03
391,097	0,04
391,542	0,03
391,987	0,03
392,432	0,03
392,877	0,03
393,322	0,03
393,767	0,03
394,212	0,03
394,656	0,03
395,101	0,03
395,546	0,04
395,99	0,03
396,435	0,03
396,879	0,03
397,324	0,04
397,768	0,04
398,212	0,03
398,657	0,03
399,101	0,03
399,545	0,03
399,989	0,03
400,433	0,03
400,877	0,04
401,321	0,03
401,765	0,03
402,209	0,03
402,653	0,03
403,096	0,03
403,54	0,03
403,984	0,03
404,427	0,03
404,871	0,03
405,314	0,03
405,758	0,03
406,201	0,03
406,644	0,03
407,088	0,03
407,531	0,03
407,974	0,03
408,417	0,03
408,86	0,03
409,303	0,03
409,746	0,03
410,189	0,03
410,632	0,03
411,075	0,03
411,517	0,03
411,96	0,03
412,403	0,03
412,845	0,03
413,288	0,03
413,73	0,03
414,173	0,03
414,615	0,03
415,058	0,03
415,5	0,03
415,942	0,03
416,384	0,03
416,826	0,03
417,268	0,03
417,711	0,03
418,152	0,03
418,594	0,03
419,036	0,03
419,478	0,03
419,92	0,03
420,362	0,03
420,803	0,03
421,245	0,03
421,686	0,03
422,128	0,02
422,569	0,03
423,011	0,03
423,452	0,03
423,893	0,03
424,335	0,03
424,776	0,03
425,217	0,03
425,658	0,03
426,099	0,03
426,54	0,03
426,981	0,03
427,422	0,03
427,863	0,03
428,304	0,03
428,744	0,03
429,185	0,03
429,626	0,03
430,066	0,03
430,507	0,03
430,947	0,03
431,388	0,03
431,828	0,03
432,268	0,03
432,709	0,03
433,149	0,03
433,589	0,03
434,029	0,03
434,469	0,03
434,909	0,03
435,349	0,03
435,789	0,03
436,229	0,03
436,669	0,03
437,108	0,03
437,548	0,03
437,988	0,03
438,427	0,03
438,867	0,03
439,306	0,03
439,746	0,03
440,185	0,03
440,624	0,03
441,064	0,03
441,503	0,03
441,942	0,03
442,381	0,03
442,82	0,03
443,259	0,03
443,698	0,03
444,137	0,03
444,576	0,03
445,015	0,03
445,453	0,02
445,892	0,03
446,331	0,03
446,769	0,03
447,208	0,03
447,646	0,03
448,085	0,03
448,523	0,03
448,961	0,03
449,4	0,03
449,838	0,03
450,276	0,03
450,714	0,03
451,152	0,03
451,59	0,03
452,028	0,03
452,466	0,03
452,904	0,03
453,342	0,03
453,779	0,03
454,217	0,03
454,655	0,03
455,092	0,03
455,53	0,03
455,967	0,03
456,405	0,03
456,842	0,03
457,279	0,03
457,717	0,03
458,154	0,03
458,591	0,03
459,028	0,03
459,465	0,03
459,902	0,03
460,339	0,03
460,776	0,03
461,213	0,03
461,65	0,03
462,086	0,03
462,523	0,03
462,96	0,03
463,396	0,03
463,833	0,03
464,269	0,03
464,706	0,03
465,142	0,03
465,578	0,03
466,015	0,03
466,451	0,03
466,887	0,03
467,323	0,03
467,759	0,03
468,195	0,03
468,631	0,03
469,067	0,04
469,503	0,03
469,939	0,03
470,374	0,03
470,81	0,03
471,246	0,03
471,681	0,03
472,117	0,03
472,552	0,03
472,988	0,03
473,423	0,03
473,858	0,04
474,294	0,03
474,729	0,03
475,164	0,03
475,599	0,03
476,034	0,03
476,469	0,03
476,904	0,03
477,339	0,03
477,774	0,03
478,208	0,03
478,643	0,03
479,078	0,03
479,512	0,03
479,947	0,03
480,381	0,03
480,816	0,03
481,25	0,03
481,685	0,03
482,119	0,03
482,553	0,04
482,987	0,03
483,421	0,04
483,856	0,03
484,29	0,03
484,724	0,03
485,157	0,04
485,591	0,04
486,025	0,03
486,459	0,03
486,893	0,03
487,326	0,03
487,76	0,03
488,193	0,03
488,627	0,03
489,06	0,04
489,494	0,04
489,927	0,04
490,36	0,03
490,794	0,04
491,227	0,03
491,66	0,04
492,093	0,04
492,526	0,04
492,959	0,03
493,392	0,03
493,825	0,03
494,257	0,04
494,69	0,04
495,123	0,04
495,555	0,03
495,988	0,03
496,421	0,04
496,853	0,04
497,285	0,03
497,718	0,03
498,15	0,03
498,582	0,04
499,015	0,04
499,447	0,04
499,879	0,03
500,311	0,04
500,743	0,03
501,175	0,04
501,607	0,04
502,038	0,04
502,47	0,04
502,902	0,03
503,334	0,04
503,765	0,04
504,197	0,03
504,628	0,03
505,06	0,04
505,491	0,04
505,922	0,04
506,354	0,04
506,785	0,04
507,216	0,04
507,647	0,04
508,078	0,04
508,509	0,04
508,94	0,04
509,371	0,04
509,802	0,04
510,233	0,04
510,664	0,04
511,094	0,04
511,525	0,04
511,955	0,04
512,386	0,04
512,816	0,04
513,247	0,04
513,677	0,04
514,108	0,04
514,538	0,04
514,968	0,04
515,398	0,04
515,828	0,04
516,258	0,04
516,688	0,04
517,118	0,04
517,548	0,04
517,978	0,04
518,408	0,04
518,837	0,04
519,267	0,04
519,697	0,04
520,126	0,04
520,556	0,04
520,985	0,04
521,415	0,04
521,844	0,04
522,273	0,04
522,702	0,04
523,132	0,04
523,561	0,04
523,99	0,04
524,419	0,04
524,848	0,04
525,277	0,04
525,705	0,04
526,134	0,04
526,563	0,04
526,992	0,04
527,42	0,04
527,849	0,04
528,277	0,04
528,706	0,04
529,134	0,04
529,563	0,04
529,991	0,04
530,419	0,04
530,847	0,04
531,275	0,04
531,703	0,04
532,131	0,04
532,559	0,04
532,987	0,04
533,415	0,05
533,843	0,04
534,271	0,04
534,698	0,04
535,126	0,04
535,554	0,05
535,981	0,04
536,409	0,04
536,836	0,04
537,264	0,04
537,691	0,05
538,118	0,04
538,545	0,04
538,972	0,05
539,4	0,04
539,827	0,04
540,254	0,04
540,681	0,05
541,107	0,04
541,534	0,04
541,961	0,05
542,388	0,04
542,814	0,04
543,241	0,05
543,667	0,04
544,094	0,04
544,52	0,05
544,947	0,05
545,373	0,04
545,799	0,05
546,226	0,04
546,652	0,05
547,078	0,04
547,504	0,05
547,93	0,05
548,356	0,05
548,782	0,05
549,208	0,04
549,633	0,04
550,059	0,04
550,485	0,05
550,91	0,05
551,336	0,05
551,761	0,05
552,187	0,05
552,612	0,05
553,038	0,05
553,463	0,05
553,888	0,05
554,313	0,05
554,738	0,05
555,163	0,05
555,588	0,05
556,013	0,05
556,438	0,05
556,863	0,05
557,288	0,05
557,713	0,05
558,137	0,05
558,562	0,05
558,986	0,05
559,411	0,05
559,835	0,05
560,26	0,05
560,684	0,05
561,108	0,05
561,533	0,05
561,957	0,05
562,381	0,05
562,805	0,05
563,229	0,05
563,653	0,05
564,077	0,05
564,501	0,05
564,925	0,05
565,348	0,05
565,772	0,05
566,196	0,05
566,619	0,05
567,043	0,05
567,466	0,05
567,89	0,05
568,313	0,05
568,736	0,05
569,159	0,05
569,583	0,05
570,006	0,05
570,429	0,05
570,852	0,05
571,275	0,05
571,698	0,05
572,12	0,05
572,543	0,05
572,966	0,05
573,389	0,05
573,811	0,05
574,234	0,05
574,656	0,04
575,079	0,05
575,501	0,05
575,924	0,05
576,346	0,05
576,768	0,05
577,19	0,05
577,612	0,05
578,034	0,05
578,456	0,05
578,878	0,04
579,3	0,05
579,722	0,05
580,144	0,05
580,566	0,05
580,987	0,05
581,409	0,05
581,83	0,05
582,252	0,05
582,673	0,04
583,095	0,04
583,516	0,05
583,937	0,05
584,359	0,05
584,78	0,05
585,201	0,05
585,622	0,05
586,043	0,05
586,464	0,05
586,885	0,05
587,306	0,05
587,726	0,05
588,147	0,05
588,568	0,05
588,988	0,05
589,409	0,05
589,83	0,05
590,25	0,05
590,67	0,06
591,091	0,05
591,511	0,05
591,931	0,06
592,351	0,06
592,771	0,05
593,192	0,05
593,612	0,05
594,031	0,05
594,451	0,05
594,871	0,05
595,291	0,05
595,711	0,05
596,13	0,05
596,55	0,06
596,969	0,06
597,389	0,06
597,808	0,06
598,228	0,05
598,647	0,05
599,066	0,05
599,486	0,05
599,905	0,05
600,324	0,05
600,743	0,05
601,162	0,05
601,581	0,05
602	0,05
602,418	0,06
602,837	0,06
603,256	0,06
603,674	0,06
604,093	0,06
604,512	0,06
604,93	0,06
605,349	0,06
605,767	0,06
606,185	0,06
606,603	0,06
607,022	0,06
607,44	0,06
607,858	0,05
608,276	0,05
608,694	0,06
609,112	0,06
609,53	0,06
609,947	0,06
610,365	0,06
610,783	0,06
611,2	0,06
611,618	0,06
612,036	0,06
612,453	0,06
612,87	0,06
613,288	0,06
613,705	0,06
614,122	0,06
614,539	0,06
614,957	0,06
615,374	0,06
615,791	0,06
616,208	0,06
616,624	0,06
617,041	0,06
617,458	0,06
617,875	0,06
618,291	0,07
618,708	0,06
619,125	0,06
619,541	0,06
619,958	0,06
620,374	0,06
620,79	0,07
621,206	0,06
621,623	0,06
622,039	0,07
622,455	0,07
622,871	0,06
623,287	0,07
623,703	0,06
624,119	0,07
624,535	0,06
624,95	0,07
625,366	0,06
625,782	0,07
626,197	0,07
626,613	0,07
627,028	0,07
627,444	0,07
627,859	0,07
628,274	0,07
628,69	0,07
629,105	0,07
629,52	0,07
629,935	0,07
630,35	0,07
630,765	0,07
631,18	0,07
631,595	0,07
632,009	0,07
632,424	0,07
632,839	0,07
633,253	0,07
633,668	0,07
634,082	0,07
634,497	0,07
634,911	0,07
635,326	0,07
635,74	0,07
636,154	0,07
636,568	0,07
636,982	0,07
637,396	0,07
637,81	0,07
638,224	0,07
638,638	0,07
639,052	0,07
639,466	0,07
639,879	0,07
640,293	0,07
640,707	0,07
641,12	0,07
641,534	0,07
641,947	0,07
642,36	0,07
642,774	0,07
643,187	0,07
643,6	0,07
644,013	0,07
644,426	0,07
644,839	0,07
645,252	0,07
645,665	0,07
646,078	0,07
646,491	0,07
646,904	0,07
647,316	0,07
647,729	0,07
648,141	0,07
648,554	0,07
648,966	0,07
649,379	0,07
649,791	0,07
650,203	0,07
650,615	0,07
651,028	0,07
651,44	0,07
651,852	0,07
652,264	0,07
652,676	0,07
653,087	0,07
653,499	0,07
653,911	0,07
654,323	0,07
654,734	0,07
655,146	0,07
655,557	0,07
655,969	0,07
656,38	0,06
656,792	0,06
657,203	0,05
657,614	0,05
658,025	0,06
658,436	0,07
658,847	0,07
659,258	0,07
659,669	0,07
660,08	0,07
660,491	0,07
660,902	0,07
661,312	0,07
661,723	0,07
662,134	0,07
662,544	0,07
662,955	0,07
663,365	0,07
663,775	0,07
664,186	0,07
664,596	0,07
665,006	0,07
665,416	0,07
665,826	0,07
666,236	0,07
666,646	0,07
667,056	0,07
667,466	0,08
667,876	0,07
668,286	0,07
668,695	0,07
669,105	0,07
669,514	0,07
669,924	0,07
670,333	0,07
670,743	0,07
671,152	0,07
671,561	0,07
671,97	0,07
672,38	0,07
672,789	0,07
673,198	0,07
673,607	0,07
674,016	0,07
674,424	0,07
674,833	0,07
675,242	0,07
675,651	0,07
676,059	0,07
676,468	0,07
676,876	0,07
677,285	0,07
677,693	0,07
678,101	0,07
678,51	0,07
678,918	0,07
679,326	0,07
679,734	0,07
680,142	0,07
680,55	0,07
680,958	0,07
681,366	0,07
681,774	0,08
682,181	0,07
682,589	0,07
682,997	0,07
683,404	0,07
683,812	0,07
684,219	0,07
684,627	0,07
685,034	0,07
685,441	0,07
685,848	0,07
686,256	0,07
686,663	0,07
687,07	0,07
687,477	0,07
687,884	0,07
688,29	0,08
688,697	0,07
689,104	0,07
689,511	0,07
689,917	0,07
690,324	0,08
690,73	0,07
691,137	0,07
691,543	0,08
691,95	0,07
692,356	0,07
692,762	0,07
693,168	0,07
693,574	0,07
693,98	0,08
694,386	0,07
694,792	0,07
695,198	0,07
695,604	0,07
696,01	0,08
696,415	0,08
696,821	0,08
697,227	0,08
697,632	0,07
698,038	0,07
698,443	0,07
698,848	0,07
699,254	0,08
699,659	0,08
700,064	0,08
700,469	0,07
700,874	0,07
701,279	0,08
701,684	0,08
702,089	0,08
702,494	0,08
702,898	0,08
703,303	0,07
703,708	0,08
704,112	0,07
704,517	0,07
704,921	0,08
705,326	0,08
705,73	0,08
706,134	0,08
706,538	0,08
706,943	0,08
707,347	0,08
707,751	0,07
708,155	0,08
708,559	0,08
708,963	0,07
709,366	0,08
709,77	0,08
710,174	0,07
710,577	0,08
710,981	0,08
711,384	0,08
711,788	0,08
712,191	0,08
712,595	0,08
712,998	0,08
713,401	0,08
713,804	0,08
714,207	0,08
714,61	0,08
715,013	0,08
715,416	0,08
715,819	0,08
716,222	0,08
716,625	0,08
717,027	0,08
717,43	0,08
717,833	0,08
718,235	0,08
718,638	0,08
719,04	0,08
719,442	0,08
719,844	0,08
720,247	0,08
720,649	0,08
721,051	0,08
721,453	0,08
721,855	0,08
722,257	0,08
722,659	0,08
723,06	0,08
723,462	0,08
723,864	0,08
724,265	0,08
724,667	0,08
725,069	0,08
725,47	0,08
725,871	0,08
726,273	0,08
726,674	0,08
727,075	0,08
727,476	0,08
727,877	0,08
728,278	0,08
728,679	0,08
729,08	0,08
729,481	0,08
729,882	0,08
730,282	0,08
730,683	0,08
731,084	0,08
731,484	0,07
731,885	0,08
732,285	0,08
732,686	0,08
733,086	0,08
733,486	0,08
733,886	0,07
734,286	0,08
734,686	0,07
735,086	0,08
735,486	0,07
735,886	0,08
736,286	0,08
736,686	0,08
737,086	0,08
737,485	0,08
737,885	0,07
738,284	0,08
738,684	0,08
739,083	0,08
739,482	0,08
739,882	0,08
740,281	0,07
740,68	0,07
741,079	0,07
741,478	0,07
741,877	0,08
742,276	0,08
742,675	0,08
743,074	0,08
743,473	0,08
743,871	0,08
744,27	0,08
744,668	0,08
745,067	0,08
745,465	0,08
745,864	0,08
746,262	0,08
746,66	0,08
747,059	0,08
747,457	0,08
747,855	0,08
748,253	0,08
748,651	0,08
749,049	0,08
749,447	0,08
749,844	0,08
750,242	0,08
750,64	0,07
751,037	0,08
751,435	0,08
751,832	0,08
752,23	0,08
752,627	0,08
753,024	0,08
753,422	0,08
753,819	0,07
754,216	0,07
754,613	0,08
755,01	0,07
755,407	0,07
755,804	0,08
756,201	0,07
756,597	0,08
756,994	0,07
757,391	0,07
757,787	0,07
758,184	0,07
758,58	0,07
758,977	0,07
759,373	0,07
759,769	0,07
760,166	0,07
760,562	0,07
760,958	0,07
761,354	0,07
761,75	0,07
762,146	0,07
762,542	0,07
762,937	0,07
763,333	0,07
763,729	0,07
764,124	0,07
764,52	0,07
764,915	0,07
765,311	0,07
765,706	0,07
766,101	0,07
766,497	0,07
766,892	0,07
767,287	0,07
767,682	0,07
768,077	0,07
768,472	0,07
768,867	0,07
769,262	0,07
769,657	0,07
770,051	0,07
770,446	0,07
770,84	0,07
771,235	0,07
771,629	0,07
772,024	0,07
772,418	0,07
772,812	0,07
773,207	0,07
773,601	0,07
773,995	0,07
774,389	0,07
774,783	0,07
775,177	0,07
775,571	0,07
775,964	0,07
776,358	0,07
776,752	0,07
777,145	0,07
777,539	0,07
777,932	0,07
778,326	0,07
778,719	0,07
779,113	0,07
779,506	0,07
779,899	0,07
780,292	0,07
780,685	0,07
781,078	0,07
781,471	0,07
781,864	0,07
782,257	0,06
782,65	0,07
783,042	0,07
783,435	0,07
783,827	0,07
784,22	0,07
784,612	0,07
785,005	0,07
785,397	0,07
785,789	0,07
786,182	0,07
786,574	0,07
786,966	0,07
787,358	0,07
787,75	0,07
788,142	0,07
788,534	0,07
788,925	0,07
789,317	0,07
789,709	0,07
790,1	0,06
790,492	0,07
790,883	0,07
791,275	0,07
791,666	0,07
792,057	0,06
792,449	0,06
792,84	0,06
793,231	0,07
793,622	0,06
794,013	0,06
794,404	0,07
794,795	0,06
795,185	0,06
795,576	0,06
795,967	0,07
796,357	0,06
796,748	0,07
797,138	0,07
797,529	0,06
797,919	0,07
798,31	0,06
798,7	0,06
799,09	0,06
799,48	0,06
799,87	0,06
800,26	0,06
800,65	0,06
801,04	0,07
801,43	0,06
801,82	0,06
802,209	0,06
802,599	0,06
802,988	0,06
803,378	0,07
803,767	0,06
804,157	0,06
804,546	0,06
804,935	0,06
805,325	0,06
805,714	0,06
806,103	0,06
806,492	0,06
806,881	0,06
807,27	0,06
807,658	0,06
808,047	0,06
808,436	0,06
808,824	0,06
809,213	0,06
809,602	0,06
809,99	0,06
810,378	0,06
810,767	0,06
811,155	0,06
811,543	0,06
811,931	0,06
812,319	0,06
812,708	0,06
813,095	0,06
813,483	0,06
813,871	0,06
814,259	0,06
814,647	0,06
815,034	0,06
815,422	0,06
815,809	0,06
816,197	0,06
816,584	0,06
816,972	0,06
817,359	0,06
817,746	0,06
818,133	0,06
818,52	0,06
818,907	0,06
819,294	0,06
819,681	0,06
820,068	0,06
820,455	0,06
820,842	0,06
821,228	0,06
821,615	0,06
822,002	0,06
822,388	0,06
822,774	0,06
823,161	0,06
823,547	0,06
823,933	0,06
824,319	0,06
824,706	0,06
825,092	0,06
825,478	0,06
825,863	0,06
826,249	0,06
826,635	0,06
827,021	0,06
827,407	0,06
827,792	0,06
828,178	0,06
828,563	0,06
828,949	0,06
829,334	0,06
829,719	0,06
830,104	0,06
830,49	0,06
830,875	0,06
831,26	0,06
831,645	0,06
832,03	0,06
832,415	0,06
832,799	0,06
833,184	0,06
833,569	0,06
833,953	0,06
834,338	0,06
834,722	0,06
835,107	0,06
835,491	0,06
835,875	0,06
836,26	0,06
836,644	0,06
837,028	0,06
837,412	0,06
837,796	0,06
838,18	0,06
838,564	0,06
838,948	0,06
839,331	0,06
839,715	0,06
840,099	0,06
840,482	0,06
840,866	0,06
841,249	0,06
841,632	0,06
842,016	0,06
842,399	0,07
842,782	0,06
843,165	0,06
843,548	0,06
843,931	0,06
844,314	0,06
844,697	0,06
845,08	0,06
845,463	0,06
845,845	0,06
846,228	0,06
846,61	0,07
846,993	0,06
847,375	0,06
847,758	0,06
848,14	0,06
848,522	0,06
848,904	0,06
849,286	0,06
849,668	0,06
850,05	0,06
850,432	0,06
850,814	0,06
851,196	0,06
851,578	0,06
851,959	0,06
852,341	0,06
852,722	0,06
853,104	0,06
853,485	0,06
853,867	0,06
854,248	0,06
854,629	0,06
855,01	0,06
855,391	0,06
855,773	0,06
856,153	0,06
856,534	0,06
856,915	0,06
857,296	0,06
857,677	0,06
858,057	0,06
858,438	0,06
858,819	0,06
859,199	0,06
859,579	0,06
859,96	0,06
860,34	0,06
860,72	0,06
861,1	0,06
861,48	0,06
861,86	0,06
862,24	0,06
862,62	0,06
863	0,06
863,38	0,06
863,76	0,06
864,139	0,06
864,519	0,06
864,898	0,06
865,278	0,06
865,657	0,06
866,037	0,05
866,416	0,06
866,795	0,06
867,174	0,05
867,553	0,06
867,932	0,05
868,311	0,05
868,69	0,06
869,069	0,06
869,448	0,05
869,826	0,06
870,205	0,06
870,584	0,05
870,962	0,05
871,341	0,05
871,719	0,05
872,097	0,05
872,475	0,05
872,854	0,05
873,232	0,05
873,61	0,05
873,988	0,05
874,366	0,05
874,744	0,05
875,121	0,05
875,499	0,05
875,877	0,05
876,255	0,04
876,632	0,04
877,01	0,04
877,387	0,04
877,764	0,05
878,142	0,04
878,519	0,04
878,896	0,04
879,273	0,04
879,65	0,04
880,027	0,04
880,404	0,04
880,781	0,04
881,158	0,04
881,534	0,04
881,911	0,04
882,288	0,04
882,664	0,03
883,041	0,04
883,417	0,03
883,793	0,03
884,17	0,03
884,546	0,03
884,922	0,03
885,298	0,03
885,674	0,03
886,05	0,03
886,426	0,03
886,802	0,02
887,178	0,02
887,553	0,03
887,929	0,03
888,305	0,03
888,68	0,03
889,056	0,02
889,431	0,02
889,806	0,02
890,182	0,02
890,557	0,02
890,932	0,02
891,307	0,02
891,682	0,02
892,057	0,02
892,432	0,01
892,807	0,01
893,181	0,01
893,556	0,02
893,931	0,01
894,305	0,01
894,68	0,02
895,054	0,01
895,428	0,01
895,803	0,01
896,177	0,01
896,551	0,01
896,925	0,01
897,299	0,01
897,673	0,01
898,047	0,01
898,421	0,01
898,795	0,01
899,169	0,01
899,542	0,01
899,916	0
900,289	0,01
900,663	0
901,036	0
901,41	0
901,783	0
902,156	-0
902,529	-0
902,902	-0
903,275	-0
903,648	-0
904,021	-0
904,394	-0
904,767	-0,01
905,139	-0,01
905,512	-0,01
905,885	-0,01
906,257	-0,01
906,629	-0
907,002	-0,01
907,374	-0,01
907,746	-0
908,119	-0,01
908,491	-0,01
908,863	-0,01
909,235	-0,01
909,607	-0,02
909,978	-0,02
910,35	-0,02
910,722	-0,01
911,094	-0,02
911,465	-0,02
911,837	-0,02
912,208	-0,02
912,58	-0,01
912,951	-0,02
913,322	-0,03
913,693	-0,02
914,065	-0,02
914,436	-0,02
914,807	-0,03
915,178	-0,02
915,548	-0,03
915,919	-0,02
916,29	-0,03
916,661	-0,03
917,031	-0,02
917,402	-0,03
917,772	-0,04
918,143	-0,02
918,513	-0,03
918,884	-0,03
919,254	-0,04
919,624	-0,03
919,994	-0,03
920,364	-0,04
920,734	-0,03
921,104	-0,04
921,474	-0,03
921,844	-0,04
922,213	-0,03
922,583	-0,03
922,953	-0,03
923,322	-0,03
923,692	-0,04
924,061	-0,04
924,43	-0,03
924,8	-0,04
925,169	-0,04
925,538	-0,04
925,907	-0,04
926,276	-0,04
926,645	-0,04
927,014	-0,03
927,383	-0,04
927,751	-0,03
928,12	-0,04
928,489	-0,04
928,857	-0,05
929,226	-0,04
929,594	-0,05
929,962	-0,04
930,331	-0,03
930,699	-0,04
931,067	-0,04
931,435	-0,04
931,803	-0,04
932,171	-0,03
932,539	-0,04
932,907	-0,04
933,275	-0,04
933,642	-0,04
934,01	-0,03
934,378	-0,05
934,745	-0,04
935,113	-0,04
935,48	-0,05
935,847	-0,04
936,215	-0,04
936,582	-0,05
936,949	-0,03
937,316	-0,05
937,683	-0,03
938,05	-0,04
938,417	-0,04
938,783	-0,04
939,15	-0,04
939,517	-0,04
939,883	-0,03
940,25	-0,03
940,616	-0,04
940,983	-0,03
941,349	-0,04
941,715	-0,04
942,082	-0,05
942,448	-0,04
942,814	-0,03
943,18	-0,03
943,546	-0,03
943,912	-0,04
944,277	-0,04
944,643	-0,03
945,009	-0,03
945,374	-0,03
945,74	-0,04
946,105	-0,03
946,471	-0,04
946,836	-0,05
947,202	-0,04
947,567	-0,03
947,932	-0,03
948,297	-0,03
948,662	-0,03
949,027	-0,03
949,392	-0,01
949,757	-0,04
950,121	-0,02
950,486	-0,03
950,851	-0,03
951,215	-0,04
951,58	-0,02
951,944	-0,03
952,309	-0,02
952,673	-0,03
953,037	-0,03
953,401	-0,04
953,765	-0,02
954,129	-0,02
954,493	-0,03
954,857	-0,03
955,221	-0,03
955,585	-0,04
955,949	-0,03
956,312	-0,04
956,676	-0,04
957,039	-0,02
957,403	-0,02
957,766	-0,03
958,13	-0,03
958,493	-0,02
958,856	-0,03
959,219	-0,02
959,582	-0,02
959,945	-0,03
960,308	-0,03
960,671	-0,03
961,034	-0,04
961,396	-0,04
961,759	-0,01
962,122	-0,02
962,484	-0,01
962,847	-0,05
963,209	-0,03
963,571	-0
963,934	-0,03
964,296	-0,04
964,658	-0,03
965,02	-0,01
965,382	-0,03
965,744	-0,01
966,106	-0,03
966,468	-0,02
966,829	-0,01
967,191	-0,05
967,553	-0,01
967,914	-0,02
968,276	-0,01
968,637	-0,02
968,998	-0,05
969,36	-0,03
969,721	-0,01
970,082	-0,02
970,443	-0,01
970,804	0
971,165	-0
971,526	-0
971,887	-0
972,247	-0
972,608	0,01
972,969	-0,03
973,329	-0,01
973,69	-0,03
974,05	-0,03
974,41	-0
974,771	-0,01
975,131	-0,02
975,491	-0,01
975,851	0,02
976,211	0,02
976,571	0
976,931	-0,01
977,291	0,01
977,65	-0,02
978,01	0,01
978,37	-0,02
978,729	0,03
979,089	0,02
979,448	-0,01
979,807	0,02
980,167	-0,01
980,526	-0,01
980,885	0,01
981,244	-0,02
981,603	0
981,962	0,02
982,321	0,03
982,68	0
983,038	0,01
983,397	0,02
983,756	-0,01
984,114	0,02
984,473	0,03
984,831	0,04
985,19	-0,02
985,548	0,02
985,906	0,02
986,264	0,03
986,622	0
986,98	-0,03
987,338	0,04
987,696	0,05
988,054	0,04
988,412	0,02
988,769	0,04
989,127	0,03
989,484	0,03
989,842	0,06
990,199	-0,01
990,557	0,03
990,914	0,03
991,271	0,01
991,628	0,04
991,985	0,05
992,342	0,03
992,699	0
993,056	-0,01
993,413	0,07
993,77	0,05
994,126	0,04
994,483	0,05
994,84	0,04
995,196	0,03
995,552	0,02
995,909	0,07
996,265	0,05
996,621	0,04
996,977	0,06
997,333	0,03
997,689	0,05
998,045	0,06
998,401	0,03
998,757	0,03
999,113	0,06
999,468	-0,02
999,824	0,1
1000,18	0,07
1000,535	0,05
1000,89	0,06
1001,246	0,05
1001,601	0,06
1001,956	0,03
1002,311	0,09
1002,666	0,05
1003,021	0,03
1003,376	0,06
1003,731	0,04
1004,086	0,07
1004,441	0,03
1004,795	0,09
1005,15	0,03
1005,505	0,05
1005,859	0,06
1006,213	0,02
1006,568	0,02
1006,922	0,03
1007,276	0,05
1007,63	0,03
1007,984	0,08
1008,338	0,1
1008,692	0,09
1009,046	0,06
1009,4	-0,02
1009,754	0,09
1010,107	0,09
1010,461	0,13
1010,814	0,07
1011,168	0,01
1011,521	0,02
1011,874	0,05
1012,228	0,03
1012,581	0,05
1012,934	0,09
1013,287	0,07
1013,64	0,05
1013,993	0,03
1014,346	0,05
1014,699	0,05
1015,051	0,05
1015,404	0,09
1015,756	0,07
1016,109	0,06
1016,461	0,02
1016,814	-0
1017,166	0,05
1017,518	0,05
1017,87	0,05
1018,223	0,09
1018,575	0,06
1018,927	0,04
1019,278	0,05
1019,63	0,06
1019,982	-0,01
1020,334	0,09
1020,685	0,04
1021,037	0,05
1021,388	0,05
1021,74	0,01
1022,091	0,06
1022,442	0,04
1022,794	0,02
1023,145	0,01
1023,496	0,05
1023,847	0,06
1024,198	0,06
1024,549	0,07
1024,9	0,04
1025,25	0,11
1025,601	0,1
1025,952	0,09
1026,302	0,03
1026,653	-0,01
1027,003	0,07
1027,353	0,13
1027,704	0,06
1028,054	0,07
1028,404	0,06
1028,754	0,06
1029,104	0,03
1029,454	0,07
1029,804	0,03
1030,154	0,1
1030,503	0,1
1030,853	0,1
