Data from Absorbance__8__15-02-29-530.txt Node

Date: Wed May 05 15:02:29 CEST 2021
User: thoma
Spectrometer: FLMS06037
Trigger mode: 0
Integration Time (sec): 1,451500E-1
Scans to average: 10
Electric dark correction enabled: true
Nonlinearity correction enabled: false
Boxcar width: 0
XAxis mode: Wavelengths
Number of Pixels in Spectrum: 2048
>>>>>Begin Spectral Data<<<<<
187,642	-0,11
188,109	-0,11
188,576	-0,11
189,043	-0
189,51	0,68
189,976	-0,14
190,443	-0,59
190,91	-0,07
191,376	0,32
191,843	0,3
192,309	0,82
192,776	-0
193,242	-0
193,708	0,27
194,175	0,15
194,641	-0,39
195,107	-0
195,573	0,11
196,039	-0,08
196,505	-0
196,971	-0
197,437	-0
197,903	0,56
198,369	0,15
198,835	0,14
199,301	0,16
199,766	0,17
200,232	0,15
200,698	0,17
201,163	0,16
201,629	0,17
202,094	0,16
202,56	0,17
203,025	0,15
203,49	0,18
203,956	0,17
204,421	0,19
204,886	0,19
205,351	0,17
205,816	0,17
206,281	0,17
206,746	0,18
207,211	0,2
207,676	0,17
208,141	0,19
208,606	0,18
209,071	0,18
209,536	0,21
210	0,21
210,465	0,21
210,929	0,23
211,394	0,26
211,859	0,27
212,323	0,29
212,787	0,3
213,252	0,33
213,716	0,37
214,18	0,38
214,645	0,44
215,109	0,47
215,573	0,49
216,037	0,55
216,501	0,6
216,965	0,65
217,429	0,72
217,893	0,74
218,357	0,82
218,82	0,88
219,284	0,91
219,748	0,98
220,211	1,02
220,675	1,09
221,139	1,12
221,602	1,18
222,066	1,21
222,529	1,22
222,992	1,27
223,456	1,3
223,919	1,36
224,382	1,39
224,845	1,39
225,308	1,44
225,772	1,44
226,235	1,46
226,698	1,48
227,16	1,5
227,623	1,51
228,086	1,5
228,549	1,51
229,012	1,52
229,474	1,55
229,937	1,55
230,4	1,54
230,862	1,56
231,325	1,58
231,787	1,57
232,25	1,56
232,712	1,55
233,174	1,57
233,637	1,58
234,099	1,56
234,561	1,55
235,023	1,56
235,485	1,56
235,947	1,56
236,409	1,56
236,871	1,56
237,333	1,58
237,795	1,56
238,257	1,56
238,718	1,57
239,18	1,57
239,642	1,56
240,103	1,56
240,565	1,55
241,026	1,55
241,488	1,53
241,949	1,54
242,411	1,55
242,872	1,54
243,333	1,53
243,795	1,54
244,256	1,53
244,717	1,51
245,178	1,52
245,639	1,54
246,1	1,53
246,561	1,54
247,022	1,54
247,483	1,56
247,943	1,58
248,404	1,59
248,865	1,56
249,325	1,59
249,786	1,58
250,247	1,59
250,707	1,59
251,168	1,59
251,628	1,6
252,088	1,59
252,549	1,63
253,009	1,6
253,469	1,62
253,929	1,61
254,389	1,6
254,849	1,62
255,309	1,61
255,769	1,62
256,229	1,62
256,689	1,64
257,149	1,63
257,609	1,66
258,069	1,65
258,528	1,64
258,988	1,68
259,448	1,66
259,907	1,65
260,367	1,66
260,826	1,69
261,285	1,66
261,745	1,67
262,204	1,66
262,663	1,66
263,122	1,67
263,582	1,67
264,041	1,68
264,5	1,7
264,959	1,67
265,418	1,68
265,877	1,66
266,336	1,68
266,794	1,67
267,253	1,68
267,712	1,67
268,171	1,66
268,629	1,65
269,088	1,67
269,546	1,69
270,005	1,7
270,463	1,68
270,922	1,69
271,38	1,66
271,838	1,69
272,296	1,68
272,755	1,65
273,213	1,66
273,671	1,68
274,129	1,67
274,587	1,67
275,045	1,66
275,503	1,65
275,961	1,68
276,418	1,67
276,876	1,68
277,334	1,66
277,791	1,68
278,249	1,66
278,707	1,66
279,164	1,67
279,622	1,65
280,079	1,67
280,536	1,67
280,994	1,69
281,451	1,67
281,908	1,66
282,365	1,66
282,822	1,66
283,28	1,67
283,737	1,67
284,193	1,67
284,65	1,67
285,107	1,67
285,564	1,68
286,021	1,65
286,478	1,69
286,934	1,64
287,391	1,66
287,848	1,66
288,304	1,69
288,761	1,65
289,217	1,65
289,673	1,65
290,13	1,67
290,586	1,66
291,042	1,63
291,498	1,66
291,955	1,63
292,411	1,66
292,867	1,66
293,323	1,65
293,779	1,66
294,235	1,63
294,69	1,63
295,146	1,65
295,602	1,62
296,058	1,62
296,513	1,64
296,969	1,65
297,424	1,64
297,88	1,64
298,335	1,61
298,791	1,62
299,246	1,61
299,701	1,6
300,157	1,61
300,612	1,6
301,067	1,59
301,522	1,61
301,977	1,6
302,432	1,61
302,887	1,63
303,342	1,62
303,797	1,6
304,252	1,6
304,707	1,6
305,161	1,62
305,616	1,62
306,071	1,6
306,525	1,59
306,98	1,59
307,434	1,61
307,889	1,6
308,343	1,59
308,797	1,59
309,252	1,6
309,706	1,59
310,16	1,6
310,614	1,61
311,068	1,6
311,522	1,59
311,976	1,57
312,43	1,59
312,884	1,58
313,338	1,58
313,792	1,57
314,245	1,57
314,699	1,56
315,153	1,55
315,606	1,55
316,06	1,55
316,513	1,54
316,967	1,52
317,42	1,54
317,873	1,54
318,327	1,54
318,78	1,56
319,233	1,53
319,686	1,55
320,139	1,53
320,592	1,55
321,045	1,53
321,498	1,51
321,951	1,53
322,404	1,54
322,857	1,53
323,31	1,53
323,762	1,49
324,215	1,49
324,667	1,48
325,12	1,47
325,573	1,46
326,025	1,45
326,477	1,45
326,93	1,48
327,382	1,51
327,834	1,54
328,286	1,53
328,739	1,53
329,191	1,53
329,643	1,52
330,095	1,52
330,547	1,51
330,999	1,46
331,45	1,48
331,902	1,48
332,354	1,46
332,806	1,45
333,257	1,47
333,709	1,47
334,16	1,46
334,612	1,45
335,063	1,46
335,515	1,46
335,966	1,46
336,417	1,48
336,869	1,46
337,32	1,46
337,771	1,45
338,222	1,43
338,673	1,41
339,124	1,39
339,575	1,37
340,026	1,38
340,477	1,38
340,928	1,38
341,378	1,38
341,829	1,38
342,28	1,38
342,73	1,37
343,181	1,38
343,631	1,37
344,082	1,35
344,532	1,35
344,982	1,35
345,433	1,35
345,883	1,34
346,333	1,35
346,783	1,35
347,233	1,36
347,683	1,34
348,133	1,34
348,583	1,35
349,033	1,33
349,483	1,34
349,933	1,32
350,383	1,33
350,832	1,33
351,282	1,33
351,732	1,32
352,181	1,33
352,631	1,31
353,08	1,3
353,529	1,31
353,979	1,3
354,428	1,29
354,877	1,29
355,327	1,29
355,776	1,29
356,225	1,28
356,674	1,27
357,123	1,26
357,572	1,27
358,021	1,27
358,469	1,25
358,918	1,23
359,367	1,25
359,816	1,23
360,264	1,23
360,713	1,25
361,161	1,23
361,61	1,23
362,058	1,21
362,507	1,21
362,955	1,21
363,403	1,2
363,852	1,21
364,3	1,2
364,748	1,2
365,196	1,19
365,644	1,18
366,092	1,19
366,54	1,18
366,988	1,17
367,436	1,16
367,883	1,17
368,331	1,15
368,779	1,15
369,226	1,15
369,674	1,14
370,121	1,13
370,569	1,13
371,016	1,12
371,464	1,12
371,911	1,11
372,358	1,11
372,805	1,09
373,253	1,08
373,7	1,1
374,147	1,08
374,594	1,08
375,041	1,07
375,488	1,06
375,935	1,05
376,381	1,05
376,828	1,04
377,275	1,03
377,721	1,02
378,168	1,02
378,615	1,01
379,061	0,99
379,508	0,99
379,954	0,99
380,4	0,99
380,847	0,97
381,293	0,96
381,739	0,96
382,185	0,94
382,631	0,94
383,077	0,93
383,523	0,91
383,969	0,91
384,415	0,89
384,861	0,89
385,307	0,88
385,752	0,87
386,198	0,86
386,644	0,85
387,089	0,84
387,535	0,83
387,98	0,82
388,426	0,82
388,871	0,82
389,317	0,8
389,762	0,79
390,207	0,79
390,652	0,78
391,097	0,77
391,542	0,76
391,987	0,75
392,432	0,75
392,877	0,74
393,322	0,73
393,767	0,73
394,212	0,71
394,656	0,71
395,101	0,7
395,546	0,69
395,99	0,68
396,435	0,69
396,879	0,68
397,324	0,67
397,768	0,66
398,212	0,65
398,657	0,64
399,101	0,65
399,545	0,64
399,989	0,64
400,433	0,63
400,877	0,62
401,321	0,61
401,765	0,61
402,209	0,61
402,653	0,6
403,096	0,59
403,54	0,59
403,984	0,58
404,427	0,58
404,871	0,57
405,314	0,56
405,758	0,56
406,201	0,56
406,644	0,55
407,088	0,55
407,531	0,55
407,974	0,54
408,417	0,54
408,86	0,53
409,303	0,53
409,746	0,52
410,189	0,52
410,632	0,51
411,075	0,51
411,517	0,51
411,96	0,51
412,403	0,5
412,845	0,5
413,288	0,49
413,73	0,49
414,173	0,48
414,615	0,48
415,058	0,47
415,5	0,47
415,942	0,47
416,384	0,46
416,826	0,46
417,268	0,46
417,711	0,45
418,152	0,45
418,594	0,45
419,036	0,44
419,478	0,44
419,92	0,44
420,362	0,43
420,803	0,43
421,245	0,43
421,686	0,42
422,128	0,42
422,569	0,42
423,011	0,41
423,452	0,41
423,893	0,41
424,335	0,41
424,776	0,41
425,217	0,4
425,658	0,4
426,099	0,39
426,54	0,39
426,981	0,39
427,422	0,39
427,863	0,38
428,304	0,38
428,744	0,38
429,185	0,37
429,626	0,37
430,066	0,37
430,507	0,36
430,947	0,36
431,388	0,36
431,828	0,36
432,268	0,36
432,709	0,36
433,149	0,35
433,589	0,35
434,029	0,35
434,469	0,35
434,909	0,34
435,349	0,34
435,789	0,33
436,229	0,34
436,669	0,33
437,108	0,33
437,548	0,33
437,988	0,32
438,427	0,32
438,867	0,31
439,306	0,31
439,746	0,32
440,185	0,31
440,624	0,31
441,064	0,31
441,503	0,31
441,942	0,31
442,381	0,3
442,82	0,3
443,259	0,3
443,698	0,29
444,137	0,29
444,576	0,29
445,015	0,29
445,453	0,28
445,892	0,29
446,331	0,29
446,769	0,28
447,208	0,27
447,646	0,28
448,085	0,27
448,523	0,27
448,961	0,27
449,4	0,27
449,838	0,27
450,276	0,26
450,714	0,26
451,152	0,26
451,59	0,26
452,028	0,26
452,466	0,26
452,904	0,26
453,342	0,25
453,779	0,26
454,217	0,24
454,655	0,25
455,092	0,25
455,53	0,24
455,967	0,24
456,405	0,24
456,842	0,24
457,279	0,24
457,717	0,23
458,154	0,23
458,591	0,23
459,028	0,23
459,465	0,23
459,902	0,23
460,339	0,23
460,776	0,22
461,213	0,22
461,65	0,22
462,086	0,22
462,523	0,22
462,96	0,21
463,396	0,22
463,833	0,21
464,269	0,21
464,706	0,21
465,142	0,21
465,578	0,21
466,015	0,2
466,451	0,2
466,887	0,2
467,323	0,2
467,759	0,2
468,195	0,2
468,631	0,2
469,067	0,19
469,503	0,19
469,939	0,19
470,374	0,2
470,81	0,19
471,246	0,19
471,681	0,19
472,117	0,19
472,552	0,19
472,988	0,18
473,423	0,18
473,858	0,18
474,294	0,18
474,729	0,18
475,164	0,18
475,599	0,18
476,034	0,18
476,469	0,18
476,904	0,18
477,339	0,18
477,774	0,18
478,208	0,17
478,643	0,17
479,078	0,17
479,512	0,17
479,947	0,17
480,381	0,17
480,816	0,17
481,25	0,16
481,685	0,16
482,119	0,17
482,553	0,16
482,987	0,16
483,421	0,16
483,856	0,16
484,29	0,16
484,724	0,16
485,157	0,16
485,591	0,16
486,025	0,15
486,459	0,15
486,893	0,15
487,326	0,15
487,76	0,15
488,193	0,15
488,627	0,15
489,06	0,15
489,494	0,15
489,927	0,15
490,36	0,15
490,794	0,14
491,227	0,15
491,66	0,15
492,093	0,14
492,526	0,14
492,959	0,14
493,392	0,14
493,825	0,14
494,257	0,14
494,69	0,14
495,123	0,14
495,555	0,14
495,988	0,13
496,421	0,14
496,853	0,13
497,285	0,13
497,718	0,13
498,15	0,13
498,582	0,13
499,015	0,13
499,447	0,13
499,879	0,13
500,311	0,13
500,743	0,12
501,175	0,12
501,607	0,13
502,038	0,12
502,47	0,12
502,902	0,12
503,334	0,12
503,765	0,12
504,197	0,12
504,628	0,12
505,06	0,12
505,491	0,12
505,922	0,12
506,354	0,12
506,785	0,12
507,216	0,11
507,647	0,12
508,078	0,11
508,509	0,11
508,94	0,11
509,371	0,11
509,802	0,11
510,233	0,11
510,664	0,11
511,094	0,11
511,525	0,11
511,955	0,11
512,386	0,11
512,816	0,11
513,247	0,11
513,677	0,11
514,108	0,11
514,538	0,1
514,968	0,1
515,398	0,11
515,828	0,11
516,258	0,11
516,688	0,1
517,118	0,1
517,548	0,1
517,978	0,1
518,408	0,1
518,837	0,1
519,267	0,1
519,697	0,1
520,126	0,1
520,556	0,1
520,985	0,1
521,415	0,1
521,844	0,1
522,273	0,1
522,702	0,1
523,132	0,1
523,561	0,1
523,99	0,09
524,419	0,1
524,848	0,1
525,277	0,09
525,705	0,09
526,134	0,09
526,563	0,09
526,992	0,09
527,42	0,09
527,849	0,09
528,277	0,09
528,706	0,09
529,134	0,09
529,563	0,09
529,991	0,09
530,419	0,09
530,847	0,09
531,275	0,09
531,703	0,09
532,131	0,09
532,559	0,09
532,987	0,09
533,415	0,09
533,843	0,08
534,271	0,09
534,698	0,08
535,126	0,08
535,554	0,08
535,981	0,08
536,409	0,08
536,836	0,08
537,264	0,08
537,691	0,08
538,118	0,08
538,545	0,08
538,972	0,08
539,4	0,08
539,827	0,08
540,254	0,08
540,681	0,08
541,107	0,08
541,534	0,08
541,961	0,08
542,388	0,08
542,814	0,08
543,241	0,08
543,667	0,08
544,094	0,08
544,52	0,08
544,947	0,08
545,373	0,08
545,799	0,08
546,226	0,08
546,652	0,08
547,078	0,07
547,504	0,07
547,93	0,08
548,356	0,07
548,782	0,07
549,208	0,07
549,633	0,07
550,059	0,07
550,485	0,07
550,91	0,07
551,336	0,07
551,761	0,07
552,187	0,07
552,612	0,07
553,038	0,07
553,463	0,07
553,888	0,07
554,313	0,07
554,738	0,07
555,163	0,07
555,588	0,07
556,013	0,07
556,438	0,07
556,863	0,07
557,288	0,07
557,713	0,07
558,137	0,07
558,562	0,07
558,986	0,07
559,411	0,07
559,835	0,07
560,26	0,07
560,684	0,07
561,108	0,07
561,533	0,07
561,957	0,07
562,381	0,07
562,805	0,07
563,229	0,07
563,653	0,07
564,077	0,07
564,501	0,07
564,925	0,07
565,348	0,07
565,772	0,07
566,196	0,07
566,619	0,07
567,043	0,07
567,466	0,07
567,89	0,06
568,313	0,07
568,736	0,06
569,159	0,06
569,583	0,06
570,006	0,06
570,429	0,06
570,852	0,06
571,275	0,06
571,698	0,06
572,12	0,06
572,543	0,06
572,966	0,06
573,389	0,06
573,811	0,06
574,234	0,06
574,656	0,06
575,079	0,06
575,501	0,06
575,924	0,06
576,346	0,06
576,768	0,06
577,19	0,06
577,612	0,06
578,034	0,06
578,456	0,05
578,878	0,05
579,3	0,05
579,722	0,06
580,144	0,06
580,566	0,06
580,987	0,06
581,409	0,06
581,83	0,06
582,252	0,05
582,673	0,05
583,095	0,05
583,516	0,05
583,937	0,06
584,359	0,06
584,78	0,06
585,201	0,06
585,622	0,05
586,043	0,05
586,464	0,05
586,885	0,06
587,306	0,06
587,726	0,06
588,147	0,05
588,568	0,05
588,988	0,05
589,409	0,05
589,83	0,05
590,25	0,05
590,67	0,06
591,091	0,05
591,511	0,06
591,931	0,06
592,351	0,06
592,771	0,05
593,192	0,05
593,612	0,05
594,031	0,05
594,451	0,05
594,871	0,05
595,291	0,05
595,711	0,05
596,13	0,05
596,55	0,05
596,969	0,06
597,389	0,05
597,808	0,05
598,228	0,05
598,647	0,05
599,066	0,05
599,486	0,05
599,905	0,05
600,324	0,05
600,743	0,05
601,162	0,05
601,581	0,05
602	0,05
602,418	0,05
602,837	0,05
603,256	0,05
603,674	0,05
604,093	0,05
604,512	0,05
604,93	0,05
605,349	0,05
605,767	0,05
606,185	0,05
606,603	0,05
607,022	0,05
607,44	0,05
607,858	0,05
608,276	0,05
608,694	0,05
609,112	0,05
609,53	0,05
609,947	0,05
610,365	0,05
610,783	0,05
611,2	0,05
611,618	0,05
612,036	0,05
612,453	0,05
612,87	0,05
613,288	0,05
613,705	0,05
614,122	0,05
614,539	0,05
614,957	0,05
615,374	0,05
615,791	0,05
616,208	0,05
616,624	0,05
617,041	0,05
617,458	0,05
617,875	0,06
618,291	0,05
618,708	0,05
619,125	0,05
619,541	0,05
619,958	0,05
620,374	0,05
620,79	0,05
621,206	0,05
621,623	0,05
622,039	0,06
622,455	0,05
622,871	0,05
623,287	0,05
623,703	0,05
624,119	0,06
624,535	0,05
624,95	0,05
625,366	0,06
625,782	0,05
626,197	0,05
626,613	0,05
627,028	0,05
627,444	0,05
627,859	0,06
628,274	0,06
628,69	0,06
629,105	0,06
629,52	0,06
629,935	0,06
630,35	0,06
630,765	0,06
631,18	0,06
631,595	0,06
632,009	0,06
632,424	0,06
632,839	0,06
633,253	0,06
633,668	0,06
634,082	0,06
634,497	0,06
634,911	0,06
635,326	0,06
635,74	0,06
636,154	0,06
636,568	0,06
636,982	0,06
637,396	0,06
637,81	0,06
638,224	0,05
638,638	0,06
639,052	0,06
639,466	0,06
639,879	0,06
640,293	0,06
640,707	0,06
641,12	0,06
641,534	0,06
641,947	0,06
642,36	0,06
642,774	0,06
643,187	0,06
643,6	0,06
644,013	0,06
644,426	0,06
644,839	0,06
645,252	0,06
645,665	0,06
646,078	0,06
646,491	0,06
646,904	0,06
647,316	0,06
647,729	0,06
648,141	0,06
648,554	0,06
648,966	0,06
649,379	0,06
649,791	0,06
650,203	0,06
650,615	0,06
651,028	0,06
651,44	0,06
651,852	0,06
652,264	0,06
652,676	0,06
653,087	0,06
653,499	0,06
653,911	0,06
654,323	0,06
654,734	0,06
655,146	0,06
655,557	0,06
655,969	0,06
656,38	0,05
656,792	0,05
657,203	0,04
657,614	0,05
658,025	0,06
658,436	0,06
658,847	0,06
659,258	0,06
659,669	0,06
660,08	0,06
660,491	0,06
660,902	0,06
661,312	0,06
661,723	0,06
662,134	0,06
662,544	0,06
662,955	0,06
663,365	0,06
663,775	0,06
664,186	0,06
664,596	0,06
665,006	0,06
665,416	0,06
665,826	0,06
666,236	0,06
666,646	0,06
667,056	0,06
667,466	0,06
667,876	0,06
668,286	0,06
668,695	0,06
669,105	0,06
669,514	0,06
669,924	0,06
670,333	0,06
670,743	0,06
671,152	0,06
671,561	0,06
671,97	0,06
672,38	0,06
672,789	0,06
673,198	0,06
673,607	0,06
674,016	0,06
674,424	0,06
674,833	0,06
675,242	0,06
675,651	0,06
676,059	0,06
676,468	0,06
676,876	0,06
677,285	0,06
677,693	0,06
678,101	0,06
678,51	0,06
678,918	0,06
679,326	0,06
679,734	0,06
680,142	0,06
680,55	0,06
680,958	0,06
681,366	0,06
681,774	0,06
682,181	0,06
682,589	0,06
682,997	0,06
683,404	0,06
683,812	0,06
684,219	0,06
684,627	0,06
685,034	0,06
685,441	0,06
685,848	0,06
686,256	0,06
686,663	0,06
687,07	0,06
687,477	0,06
687,884	0,06
688,29	0,06
688,697	0,06
689,104	0,06
689,511	0,06
689,917	0,06
690,324	0,06
690,73	0,06
691,137	0,06
691,543	0,06
691,95	0,06
692,356	0,06
692,762	0,06
693,168	0,06
693,574	0,06
693,98	0,06
694,386	0,06
694,792	0,06
695,198	0,06
695,604	0,06
696,01	0,05
696,415	0,06
696,821	0,06
697,227	0,06
697,632	0,06
698,038	0,05
698,443	0,05
698,848	0,06
699,254	0,06
699,659	0,06
700,064	0,06
700,469	0,06
700,874	0,06
701,279	0,06
701,684	0,06
702,089	0,06
702,494	0,06
702,898	0,06
703,303	0,05
703,708	0,06
704,112	0,05
704,517	0,06
704,921	0,06
705,326	0,06
705,73	0,06
706,134	0,06
706,538	0,06
706,943	0,06
707,347	0,06
707,751	0,05
708,155	0,06
708,559	0,05
708,963	0,06
709,366	0,05
709,77	0,05
710,174	0,06
710,577	0,06
710,981	0,06
711,384	0,06
711,788	0,06
712,191	0,06
712,595	0,05
712,998	0,06
713,401	0,05
713,804	0,05
714,207	0,05
714,61	0,06
715,013	0,05
715,416	0,06
715,819	0,05
716,222	0,06
716,625	0,06
717,027	0,06
717,43	0,06
717,833	0,06
718,235	0,05
718,638	0,06
719,04	0,05
719,442	0,06
719,844	0,05
720,247	0,06
720,649	0,05
721,051	0,05
721,453	0,05
721,855	0,06
722,257	0,06
722,659	0,06
723,06	0,06
723,462	0,06
723,864	0,05
724,265	0,06
724,667	0,05
725,069	0,06
725,47	0,06
725,871	0,05
726,273	0,05
726,674	0,06
727,075	0,06
727,476	0,05
727,877	0,06
728,278	0,06
728,679	0,05
729,08	0,05
729,481	0,05
729,882	0,06
730,282	0,06
730,683	0,05
731,084	0,06
731,484	0,05
731,885	0,05
732,285	0,05
732,686	0,06
733,086	0,06
733,486	0,05
733,886	0,06
734,286	0,06
734,686	0,05
735,086	0,05
735,486	0,05
735,886	0,05
736,286	0,05
736,686	0,05
737,086	0,05
737,485	0,05
737,885	0,05
738,284	0,05
738,684	0,05
739,083	0,06
739,482	0,05
739,882	0,06
740,281	0,05
740,68	0,05
741,079	0,06
741,478	0,06
741,877	0,06
742,276	0,06
742,675	0,06
743,074	0,06
743,473	0,06
743,871	0,06
744,27	0,05
744,668	0,05
745,067	0,06
745,465	0,06
745,864	0,06
746,262	0,06
746,66	0,06
747,059	0,06
747,457	0,06
747,855	0,06
748,253	0,06
748,651	0,05
749,049	0,06
749,447	0,06
749,844	0,06
750,242	0,06
750,64	0,06
751,037	0,06
751,435	0,06
751,832	0,06
752,23	0,06
752,627	0,06
753,024	0,06
753,422	0,06
753,819	0,06
754,216	0,05
754,613	0,06
755,01	0,06
755,407	0,06
755,804	0,06
756,201	0,06
756,597	0,06
756,994	0,06
757,391	0,05
757,787	0,05
758,184	0,05
758,58	0,05
758,977	0,05
759,373	0,05
759,769	0,05
760,166	0,05
760,562	0,05
760,958	0,05
761,354	0,05
761,75	0,05
762,146	0,05
762,542	0,05
762,937	0,06
763,333	0,05
763,729	0,05
764,124	0,06
764,52	0,05
764,915	0,05
765,311	0,05
765,706	0,05
766,101	0,05
766,497	0,05
766,892	0,05
767,287	0,06
767,682	0,05
768,077	0,05
768,472	0,05
768,867	0,05
769,262	0,05
769,657	0,06
770,051	0,05
770,446	0,05
770,84	0,05
771,235	0,05
771,629	0,05
772,024	0,05
772,418	0,06
772,812	0,06
773,207	0,05
773,601	0,06
773,995	0,05
774,389	0,06
774,783	0,05
775,177	0,06
775,571	0,06
775,964	0,06
776,358	0,06
776,752	0,06
777,145	0,06
777,539	0,05
777,932	0,05
778,326	0,06
778,719	0,05
779,113	0,05
779,506	0,05
779,899	0,05
780,292	0,06
780,685	0,06
781,078	0,06
781,471	0,05
781,864	0,05
782,257	0,05
782,65	0,05
783,042	0,06
783,435	0,05
783,827	0,05
784,22	0,06
784,612	0,05
785,005	0,05
785,397	0,05
785,789	0,06
786,182	0,06
786,574	0,06
786,966	0,05
787,358	0,05
787,75	0,06
788,142	0,05
788,534	0,05
788,925	0,05
789,317	0,05
789,709	0,05
790,1	0,05
790,492	0,05
790,883	0,05
791,275	0,06
791,666	0,05
792,057	0,06
792,449	0,05
792,84	0,05
793,231	0,06
793,622	0,05
794,013	0,06
794,404	0,05
794,795	0,05
795,185	0,06
795,576	0,05
795,967	0,05
796,357	0,06
796,748	0,06
797,138	0,06
797,529	0,05
797,919	0,05
798,31	0,05
798,7	0,05
799,09	0,05
799,48	0,06
799,87	0,05
800,26	0,05
800,65	0,06
801,04	0,06
801,43	0,06
801,82	0,06
802,209	0,05
802,599	0,06
802,988	0,06
803,378	0,06
803,767	0,05
804,157	0,06
804,546	0,05
804,935	0,06
805,325	0,06
805,714	0,05
806,103	0,06
806,492	0,06
806,881	0,05
807,27	0,05
807,658	0,05
808,047	0,05
808,436	0,06
808,824	0,06
809,213	0,06
809,602	0,06
809,99	0,06
810,378	0,06
810,767	0,06
811,155	0,06
811,543	0,06
811,931	0,06
812,319	0,06
812,708	0,06
813,095	0,06
813,483	0,06
813,871	0,06
814,259	0,06
814,647	0,06
815,034	0,05
815,422	0,06
815,809	0,06
816,197	0,06
816,584	0,06
816,972	0,06
817,359	0,06
817,746	0,06
818,133	0,06
818,52	0,06
818,907	0,06
819,294	0,06
819,681	0,06
820,068	0,06
820,455	0,06
820,842	0,06
821,228	0,06
821,615	0,06
822,002	0,06
822,388	0,06
822,774	0,06
823,161	0,06
823,547	0,06
823,933	0,06
824,319	0,06
824,706	0,06
825,092	0,06
825,478	0,06
825,863	0,05
826,249	0,06
826,635	0,06
827,021	0,06
827,407	0,06
827,792	0,06
828,178	0,06
828,563	0,06
828,949	0,06
829,334	0,06
829,719	0,06
830,104	0,06
830,49	0,06
830,875	0,06
831,26	0,06
831,645	0,06
832,03	0,06
832,415	0,06
832,799	0,06
833,184	0,06
833,569	0,06
833,953	0,06
834,338	0,06
834,722	0,05
835,107	0,06
835,491	0,06
835,875	0,06
836,26	0,06
836,644	0,06
837,028	0,06
837,412	0,06
837,796	0,06
838,18	0,06
838,564	0,06
838,948	0,06
839,331	0,06
839,715	0,06
840,099	0,06
840,482	0,05
840,866	0,06
841,249	0,06
841,632	0,06
842,016	0,06
842,399	0,06
842,782	0,06
843,165	0,05
843,548	0,06
843,931	0,06
844,314	0,06
844,697	0,06
845,08	0,06
845,463	0,06
845,845	0,06
846,228	0,06
846,61	0,06
846,993	0,06
847,375	0,06
847,758	0,06
848,14	0,06
848,522	0,06
848,904	0,06
849,286	0,06
849,668	0,06
850,05	0,06
850,432	0,06
850,814	0,06
851,196	0,06
851,578	0,06
851,959	0,06
852,341	0,06
852,722	0,06
853,104	0,06
853,485	0,06
853,867	0,06
854,248	0,06
854,629	0,06
855,01	0,06
855,391	0,06
855,773	0,06
856,153	0,06
856,534	0,06
856,915	0,06
857,296	0,06
857,677	0,06
858,057	0,06
858,438	0,06
858,819	0,06
859,199	0,06
859,579	0,06
859,96	0,06
860,34	0,06
860,72	0,06
861,1	0,06
861,48	0,06
861,86	0,06
862,24	0,06
862,62	0,06
863	0,06
863,38	0,06
863,76	0,07
864,139	0,06
864,519	0,06
864,898	0,06
865,278	0,06
865,657	0,07
866,037	0,07
866,416	0,06
866,795	0,07
867,174	0,07
867,553	0,06
867,932	0,06
868,311	0,07
868,69	0,06
869,069	0,06
869,448	0,07
869,826	0,06
870,205	0,07
870,584	0,07
870,962	0,06
871,341	0,06
871,719	0,06
872,097	0,06
872,475	0,07
872,854	0,07
873,232	0,06
873,61	0,07
873,988	0,06
874,366	0,07
874,744	0,06
875,121	0,07
875,499	0,06
875,877	0,07
876,255	0,07
876,632	0,06
877,01	0,06
877,387	0,06
877,764	0,06
878,142	0,06
878,519	0,06
878,896	0,06
879,273	0,06
879,65	0,07
880,027	0,06
880,404	0,06
880,781	0,06
881,158	0,06
881,534	0,06
881,911	0,06
882,288	0,06
882,664	0,06
883,041	0,06
883,417	0,06
883,793	0,06
884,17	0,06
884,546	0,06
884,922	0,06
885,298	0,05
885,674	0,05
886,05	0,05
886,426	0,05
886,802	0,05
887,178	0,05
887,553	0,04
887,929	0,05
888,305	0,06
888,68	0,06
889,056	0,05
889,431	0,05
889,806	0,05
890,182	0,05
890,557	0,04
890,932	0,05
891,307	0,05
891,682	0,04
892,057	0,04
892,432	0,05
892,807	0,04
893,181	0,05
893,556	0,04
893,931	0,04
894,305	0,05
894,68	0,05
895,054	0,05
895,428	0,05
895,803	0,04
896,177	0,05
896,551	0,05
896,925	0,05
897,299	0,04
897,673	0,05
898,047	0,04
898,421	0,04
898,795	0,05
899,169	0,04
899,542	0,04
899,916	0,04
900,289	0,04
900,663	0,04
901,036	0,04
901,41	0,04
901,783	0,04
902,156	0,03
902,529	0,04
902,902	0,04
903,275	0,04
903,648	0,03
904,021	0,04
904,394	0,03
904,767	0,03
905,139	0,03
905,512	0,03
905,885	0,03
906,257	0,03
906,629	0,02
907,002	0,02
907,374	0,02
907,746	0,02
908,119	0,02
908,491	0,02
908,863	0,02
909,235	0,02
909,607	0,02
909,978	0,02
910,35	0,02
910,722	0,01
911,094	0,01
911,465	0,01
911,837	0,01
912,208	0
912,58	0
912,951	0
913,322	0
913,693	-0
914,065	0,01
914,436	0
914,807	0
915,178	-0
915,548	-0,01
915,919	-0
916,29	-0,01
916,661	0
917,031	-0
917,402	-0,01
917,772	-0,02
918,143	-0,01
918,513	-0,01
918,884	-0,01
919,254	-0,01
919,624	-0,02
919,994	-0,01
920,364	-0,02
920,734	-0,02
921,104	-0,02
921,474	-0,02
921,844	-0,02
922,213	-0,02
922,583	-0,03
922,953	-0,02
923,322	-0,03
923,692	-0,02
924,061	-0,03
924,43	-0,03
924,8	-0,03
925,169	-0,03
925,538	-0,03
925,907	-0,03
926,276	-0,04
926,645	-0,04
927,014	-0,05
927,383	-0,04
927,751	-0,04
928,12	-0,04
928,489	-0,04
928,857	-0,04
929,226	-0,05
929,594	-0,04
929,962	-0,04
930,331	-0,04
930,699	-0,05
931,067	-0,05
931,435	-0,04
931,803	-0,05
932,171	-0,05
932,539	-0,05
932,907	-0,05
933,275	-0,05
933,642	-0,05
934,01	-0,06
934,378	-0,05
934,745	-0,05
935,113	-0,06
935,48	-0,06
935,847	-0,06
936,215	-0,05
936,582	-0,06
936,949	-0,06
937,316	-0,05
937,683	-0,05
938,05	-0,05
938,417	-0,07
938,783	-0,06
939,15	-0,06
939,517	-0,06
939,883	-0,05
940,25	-0,05
940,616	-0,06
940,983	-0,06
941,349	-0,07
941,715	-0,06
942,082	-0,06
942,448	-0,07
942,814	-0,06
943,18	-0,06
943,546	-0,06
943,912	-0,07
944,277	-0,06
944,643	-0,06
945,009	-0,05
945,374	-0,07
945,74	-0,06
946,105	-0,06
946,471	-0,06
946,836	-0,06
947,202	-0,06
947,567	-0,06
947,932	-0,08
948,297	-0,07
948,662	-0,07
949,027	-0,07
949,392	-0,06
949,757	-0,06
950,121	-0,06
950,486	-0,07
950,851	-0,07
951,215	-0,06
951,58	-0,07
951,944	-0,06
952,309	-0,07
952,673	-0,07
953,037	-0,07
953,401	-0,07
953,765	-0,07
954,129	-0,07
954,493	-0,06
954,857	-0,06
955,221	-0,07
955,585	-0,06
955,949	-0,06
956,312	-0,08
956,676	-0,07
957,039	-0,06
957,403	-0,07
957,766	-0,06
958,13	-0,07
958,493	-0,05
958,856	-0,07
959,219	-0,06
959,582	-0,07
959,945	-0,06
960,308	-0,07
960,671	-0,06
961,034	-0,07
961,396	-0,05
961,759	-0,06
962,122	-0,06
962,484	-0,06
962,847	-0,07
963,209	-0,07
963,571	-0,07
963,934	-0,05
964,296	-0,08
964,658	-0,06
965,02	-0,07
965,382	-0,06
965,744	-0,06
966,106	-0,07
966,468	-0,05
966,829	-0,08
967,191	-0,06
967,553	-0,06
967,914	-0,04
968,276	-0,04
968,637	-0,06
968,998	-0,06
969,36	-0,06
969,721	-0,05
970,082	-0,06
970,443	-0,06
970,804	-0,06
971,165	-0,06
971,526	-0,07
971,887	-0,03
972,247	-0,08
972,608	-0,05
972,969	-0,05
973,329	-0,05
973,69	-0,05
974,05	-0,05
974,41	-0,04
974,771	-0,04
975,131	-0,06
975,491	-0,03
975,851	-0,04
976,211	-0,06
976,571	-0,05
976,931	-0,05
977,291	-0,04
977,65	-0,05
978,01	-0,04
978,37	-0,03
978,729	-0,03
979,089	-0,03
979,448	-0,04
979,807	-0,04
980,167	-0,04
980,526	-0,05
980,885	-0,04
981,244	-0,04
981,603	-0,05
981,962	-0
982,321	-0,03
982,68	-0,02
983,038	-0,03
983,397	-0,03
983,756	-0,03
984,114	-0,04
984,473	-0,02
984,831	-0,02
985,19	-0,02
985,548	0
985,906	-0,01
986,264	-0,03
986,622	-0,02
986,98	-0,04
987,338	-0,02
987,696	-0,02
988,054	-0,03
988,412	-0
988,769	-0,01
989,127	-0,04
989,484	-0,06
989,842	0
990,199	0,01
990,557	-0,01
990,914	-0,02
991,271	-0,01
991,628	0,01
991,985	-0,04
992,342	-0,01
992,699	0
993,056	-0,02
993,413	-0,01
993,77	-0,02
994,126	-0,04
994,483	-0,01
994,84	0,01
995,196	0,03
995,552	0,01
995,909	-0,02
996,265	-0,05
996,621	0,01
996,977	0
997,333	0,01
997,689	-0,01
998,045	0
998,401	0,02
998,757	0,04
999,113	0,03
999,468	0,01
999,824	-0
1000,18	-0,01
1000,535	-0,02
1000,89	0
1001,246	-0,01
1001,601	-0
1001,956	0,03
1002,311	-0,02
1002,666	0,02
1003,021	-0,01
1003,376	0
1003,731	0
1004,086	-0,01
1004,441	-0,02
1004,795	0,02
1005,15	0,05
1005,505	-0,04
1005,859	0,01
1006,213	0,02
1006,568	0,01
1006,922	-0,02
1007,276	-0,02
1007,63	0
1007,984	0,02
1008,338	0,03
1008,692	0
1009,046	0,04
1009,4	0,03
1009,754	0,02
1010,107	-0
1010,461	-0
1010,814	0,02
1011,168	0,03
1011,521	0,05
1011,874	0,04
1012,228	0,03
1012,581	-0,01
1012,934	0,03
1013,287	0,02
1013,64	0
1013,993	0,05
1014,346	0,04
1014,699	0,01
1015,051	0
1015,404	0,02
1015,756	0,1
1016,109	0,09
1016,461	0,01
1016,814	0,03
1017,166	-0,02
1017,518	0,01
1017,87	0,04
1018,223	0,05
1018,575	0,08
1018,927	0,07
1019,278	0,06
1019,63	-0
1019,982	0,03
1020,334	0,07
1020,685	0,06
1021,037	0,04
1021,388	-0,01
1021,74	0,02
1022,091	0,1
1022,442	0,06
1022,794	0,06
1023,145	0,05
1023,496	0,05
1023,847	0
1024,198	0,04
1024,549	0,04
1024,9	0,07
1025,25	0,08
1025,601	0,04
1025,952	0,02
1026,302	0,09
1026,653	0,09
1027,003	0,05
1027,353	0,01
1027,704	0,04
1028,054	0,04
1028,404	0,09
1028,754	0,02
1029,104	0,03
1029,454	0,05
1029,804	0,03
1030,154	0,02
1030,503	0,02
1030,853	0,02
