Data from Absorbance__46__14-33-44-326.txt Node

Date: Wed Apr 28 14:33:44 CEST 2021
User: thoma
Spectrometer: FLMS05507
Trigger mode: 0
Integration Time (sec): 6,810000E-3
Scans to average: 10
Electric dark correction enabled: true
Nonlinearity correction enabled: false
Boxcar width: 0
XAxis mode: Wavelengths
Number of Pixels in Spectrum: 2048
>>>>>Begin Spectral Data<<<<<
188,96	-0
189,424	-0
189,887	-0
190,351	1,28
190,815	0,08
191,279	-0
191,742	-0
192,206	0,57
192,669	-0
193,133	0,02
193,596	-0
194,06	-0
194,523	-0,13
194,987	0,15
195,45	-1,4
195,913	0,13
196,376	0,22
196,84	0,24
197,303	-0,88
197,766	0,1
198,229	-0,1
198,692	0,16
199,155	-0
199,618	2,35
200,081	2,33
200,543	2,38
201,006	2,35
201,469	2,29
201,932	2,33
202,394	2,38
202,857	2,41
203,32	2,53
203,782	2,45
204,245	2,39
204,707	2,49
205,169	2,54
205,632	2,49
206,094	2,47
206,556	2,4
207,019	2,51
207,481	2,49
207,943	2,44
208,405	2,74
208,867	2,53
209,329	2,53
209,791	2,48
210,253	2,61
210,715	2,56
211,177	2,48
211,639	2,57
212,1	2,62
212,562	2,49
213,024	2,61
213,485	2,61
213,947	2,58
214,408	2,65
214,87	2,56
215,331	2,62
215,793	2,57
216,254	2,52
216,715	2,55
217,177	2,65
217,638	2,7
218,099	2,57
218,56	2,67
219,021	2,74
219,482	2,59
219,944	2,58
220,404	2,58
220,865	2,56
221,326	2,63
221,787	2,56
222,248	2,73
222,709	2,53
223,169	2,61
223,63	2,69
224,091	2,75
224,551	2,69
225,012	2,63
225,472	2,63
225,933	2,69
226,393	2,57
226,854	2,68
227,314	2,61
227,774	2,59
228,234	2,74
228,695	2,75
229,155	2,67
229,615	2,67
230,075	2,61
230,535	2,66
230,995	2,73
231,455	2,73
231,915	2,61
232,375	2,63
232,834	2,62
233,294	2,52
233,754	2,68
234,214	2,64
234,673	2,55
235,133	2,74
235,592	2,63
236,052	2,68
236,511	2,71
236,971	2,67
237,43	2,67
237,889	2,62
238,349	2,6
238,808	2,7
239,267	2,58
239,726	2,57
240,185	2,61
240,644	2,59
241,103	2,66
241,562	2,66
242,021	2,57
242,48	2,62
242,939	2,66
243,398	2,64
243,857	2,53
244,315	2,64
244,774	2,61
245,233	2,62
245,691	2,8
246,15	2,62
246,608	2,58
247,067	2,51
247,525	2,58
247,983	2,6
248,442	2,56
248,9	2,57
249,358	2,61
249,816	2,52
250,274	2,48
250,733	2,55
251,191	2,66
251,649	2,6
252,107	2,57
252,564	2,57
253,022	2,58
253,48	2,46
253,938	2,63
254,396	2,51
254,853	2,53
255,311	2,56
255,769	2,5
256,226	2,42
256,684	2,62
257,141	2,57
257,599	2,55
258,056	2,5
258,513	2,54
258,971	2,63
259,428	2,44
259,885	2,47
260,342	2,52
260,799	2,55
261,256	2,57
261,714	2,56
262,171	2,49
262,627	2,53
263,084	2,63
263,541	2,53
263,998	2,58
264,455	2,4
264,912	2,42
265,368	2,37
265,825	2,42
266,281	2,4
266,738	2,41
267,194	2,48
267,651	2,44
268,107	2,5
268,564	2,41
269,02	2,43
269,476	2,38
269,933	2,41
270,389	2,42
270,845	2,33
271,301	2,36
271,757	2,36
272,213	2,33
272,669	2,29
273,125	2,33
273,581	2,21
274,037	2,23
274,492	2,18
274,948	2,15
275,404	2,2
275,86	2,06
276,315	2,06
276,771	1,99
277,226	1,96
277,682	1,89
278,137	1,91
278,593	1,85
279,048	1,81
279,503	1,76
279,958	1,72
280,414	1,67
280,869	1,64
281,324	1,63
281,779	1,57
282,234	1,52
282,689	1,49
283,144	1,44
283,599	1,39
284,054	1,35
284,508	1,32
284,963	1,27
285,418	1,24
285,873	1,2
286,327	1,18
286,782	1,13
287,236	1,1
287,691	1,07
288,145	1,04
288,6	1,01
289,054	0,98
289,508	0,95
289,963	0,92
290,417	0,9
290,871	0,86
291,325	0,84
291,779	0,82
292,233	0,79
292,687	0,77
293,141	0,75
293,595	0,73
294,049	0,7
294,503	0,68
294,957	0,66
295,41	0,64
295,864	0,63
296,318	0,6
296,771	0,59
297,225	0,57
297,678	0,55
298,132	0,54
298,585	0,52
299,039	0,51
299,492	0,5
299,945	0,49
300,398	0,47
300,852	0,46
301,305	0,45
301,758	0,43
302,211	0,43
302,664	0,41
303,117	0,4
303,57	0,4
304,023	0,39
304,476	0,38
304,928	0,36
305,381	0,36
305,834	0,35
306,286	0,35
306,739	0,34
307,192	0,33
307,644	0,32
308,097	0,32
308,549	0,31
309,001	0,31
309,454	0,3
309,906	0,3
310,358	0,29
310,81	0,29
311,263	0,28
311,715	0,28
312,167	0,27
312,619	0,26
313,071	0,26
313,523	0,26
313,975	0,25
314,426	0,25
314,878	0,24
315,33	0,24
315,782	0,24
316,233	0,23
316,685	0,23
317,136	0,23
317,588	0,23
318,039	0,23
318,491	0,23
318,942	0,23
319,393	0,23
319,845	0,23
320,296	0,22
320,747	0,21
321,198	0,2
321,649	0,2
322,101	0,2
322,552	0,2
323,003	0,19
323,453	0,19
323,904	0,19
324,355	0,19
324,806	0,19
325,257	0,19
325,707	0,19
326,158	0,19
326,609	0,19
327,059	0,19
327,51	0,19
327,96	0,18
328,411	0,19
328,861	0,18
329,311	0,19
329,762	0,18
330,212	0,18
330,662	0,18
331,112	0,18
331,562	0,17
332,012	0,17
332,462	0,17
332,912	0,18
333,362	0,17
333,812	0,17
334,262	0,17
334,712	0,17
335,161	0,17
335,611	0,17
336,061	0,16
336,51	0,17
336,96	0,16
337,409	0,16
337,859	0,16
338,308	0,15
338,758	0,15
339,207	0,16
339,656	0,16
340,105	0,15
340,555	0,16
341,004	0,15
341,453	0,15
341,902	0,15
342,351	0,15
342,8	0,15
343,249	0,15
343,698	0,15
344,146	0,15
344,595	0,15
345,044	0,15
345,493	0,15
345,941	0,15
346,39	0,15
346,838	0,14
347,287	0,14
347,735	0,15
348,184	0,14
348,632	0,15
349,08	0,15
349,529	0,15
349,977	0,15
350,425	0,15
350,873	0,14
351,321	0,15
351,769	0,14
352,217	0,14
352,665	0,14
353,113	0,14
353,561	0,15
354,009	0,15
354,456	0,14
354,904	0,14
355,352	0,14
355,799	0,14
356,247	0,14
356,694	0,14
357,142	0,14
357,589	0,14
358,037	0,14
358,484	0,14
358,931	0,13
359,379	0,14
359,826	0,14
360,273	0,14
360,72	0,14
361,167	0,13
361,614	0,13
362,061	0,14
362,508	0,13
362,955	0,13
363,402	0,14
363,848	0,13
364,295	0,14
364,742	0,13
365,188	0,14
365,635	0,13
366,082	0,13
366,528	0,13
366,975	0,14
367,421	0,13
367,867	0,13
368,314	0,13
368,76	0,13
369,206	0,14
369,652	0,13
370,098	0,13
370,545	0,13
370,991	0,13
371,437	0,13
371,882	0,14
372,328	0,14
372,774	0,14
373,22	0,13
373,666	0,14
374,111	0,13
374,557	0,13
375,003	0,14
375,448	0,13
375,894	0,13
376,339	0,13
376,785	0,13
377,23	0,13
377,675	0,13
378,121	0,13
378,566	0,13
379,011	0,13
379,456	0,13
379,901	0,13
380,346	0,13
380,791	0,13
381,236	0,13
381,681	0,13
382,126	0,13
382,571	0,13
383,016	0,13
383,461	0,14
383,905	0,14
384,35	0,13
384,794	0,13
385,239	0,13
385,683	0,13
386,128	0,13
386,572	0,13
387,017	0,13
387,461	0,13
387,905	0,13
388,349	0,13
388,794	0,13
389,238	0,13
389,682	0,13
390,126	0,13
390,57	0,13
391,014	0,13
391,457	0,14
391,901	0,13
392,345	0,13
392,789	0,13
393,233	0,13
393,676	0,13
394,12	0,14
394,563	0,13
395,007	0,13
395,45	0,13
395,894	0,14
396,337	0,14
396,78	0,13
397,224	0,14
397,667	0,13
398,11	0,13
398,553	0,13
398,996	0,13
399,439	0,13
399,882	0,13
400,325	0,13
400,768	0,13
401,211	0,13
401,654	0,13
402,096	0,13
402,539	0,13
402,982	0,14
403,424	0,13
403,867	0,13
404,309	0,13
404,752	0,13
405,194	0,14
405,637	0,13
406,079	0,13
406,521	0,13
406,963	0,13
407,406	0,13
407,848	0,14
408,29	0,13
408,732	0,14
409,174	0,13
409,616	0,13
410,058	0,13
410,499	0,14
410,941	0,14
411,383	0,13
411,825	0,14
412,266	0,14
412,708	0,14
413,15	0,14
413,591	0,13
414,033	0,13
414,474	0,13
414,915	0,13
415,357	0,13
415,798	0,14
416,239	0,14
416,68	0,14
417,121	0,13
417,563	0,13
418,004	0,13
418,445	0,13
418,885	0,14
419,326	0,13
419,767	0,14
420,208	0,13
420,649	0,13
421,089	0,14
421,53	0,14
421,971	0,13
422,411	0,14
422,852	0,13
423,292	0,13
423,733	0,13
424,173	0,14
424,613	0,13
425,054	0,14
425,494	0,15
425,934	0,14
426,374	0,14
426,814	0,14
427,254	0,14
427,694	0,14
428,134	0,14
428,574	0,14
429,014	0,14
429,454	0,14
429,893	0,14
430,333	0,14
430,773	0,13
431,212	0,14
431,652	0,14
432,091	0,14
432,531	0,13
432,97	0,14
433,41	0,15
433,849	0,15
434,288	0,14
434,727	0,14
435,167	0,14
435,606	0,14
436,045	0,14
436,484	0,14
436,923	0,14
437,362	0,14
437,801	0,14
438,239	0,14
438,678	0,15
439,117	0,14
439,556	0,14
439,994	0,15
440,433	0,14
440,871	0,15
441,31	0,14
441,748	0,14
442,187	0,15
442,625	0,14
443,063	0,14
443,502	0,15
443,94	0,14
444,378	0,14
444,816	0,14
445,254	0,14
445,692	0,15
446,13	0,14
446,568	0,14
447,006	0,14
447,444	0,14
447,881	0,14
448,319	0,14
448,757	0,15
449,194	0,14
449,632	0,14
450,07	0,15
450,507	0,15
450,944	0,15
451,382	0,14
451,819	0,14
452,256	0,15
452,694	0,14
453,131	0,15
453,568	0,15
454,005	0,15
454,442	0,16
454,879	0,15
455,316	0,16
455,753	0,15
456,19	0,15
456,627	0,15
457,063	0,15
457,5	0,15
457,937	0,15
458,373	0,15
458,81	0,15
459,246	0,15
459,683	0,15
460,119	0,15
460,556	0,15
460,992	0,15
461,428	0,15
461,864	0,15
462,301	0,15
462,737	0,15
463,173	0,16
463,609	0,16
464,045	0,16
464,481	0,16
464,917	0,15
465,352	0,15
465,788	0,15
466,224	0,15
466,66	0,15
467,095	0,16
467,531	0,16
467,966	0,16
468,402	0,16
468,837	0,16
469,273	0,16
469,708	0,16
470,143	0,16
470,578	0,16
471,014	0,16
471,449	0,16
471,884	0,16
472,319	0,16
472,754	0,16
473,189	0,16
473,624	0,16
474,059	0,16
474,493	0,16
474,928	0,16
475,363	0,17
475,797	0,16
476,232	0,16
476,667	0,16
477,101	0,16
477,536	0,16
477,97	0,17
478,404	0,16
478,839	0,17
479,273	0,17
479,707	0,17
480,141	0,17
480,575	0,17
481,009	0,17
481,444	0,17
481,877	0,17
482,311	0,17
482,745	0,17
483,179	0,17
483,613	0,17
484,047	0,17
484,48	0,17
484,914	0,16
485,347	0,17
485,781	0,17
486,214	0,17
486,648	0,16
487,081	0,17
487,515	0,17
487,948	0,17
488,381	0,17
488,814	0,17
489,247	0,17
489,68	0,17
490,113	0,18
490,546	0,17
490,979	0,17
491,412	0,17
491,845	0,18
492,278	0,17
492,711	0,17
493,143	0,17
493,576	0,17
494,009	0,18
494,441	0,17
494,874	0,18
495,306	0,18
495,738	0,18
496,171	0,18
496,603	0,17
497,035	0,17
497,467	0,18
497,9	0,18
498,332	0,18
498,764	0,18
499,196	0,17
499,628	0,17
500,06	0,18
500,491	0,18
500,923	0,18
501,355	0,18
501,787	0,18
502,218	0,18
502,65	0,18
503,081	0,18
503,513	0,18
503,944	0,17
504,376	0,18
504,807	0,18
505,238	0,18
505,67	0,18
506,101	0,18
506,532	0,18
506,963	0,18
507,394	0,18
507,825	0,18
508,256	0,18
508,687	0,18
509,118	0,18
509,549	0,19
509,979	0,18
510,41	0,18
510,841	0,18
511,271	0,18
511,702	0,18
512,132	0,18
512,563	0,18
512,993	0,19
513,424	0,18
513,854	0,19
514,284	0,18
514,714	0,18
515,145	0,19
515,575	0,19
516,005	0,18
516,435	0,18
516,865	0,19
517,295	0,19
517,724	0,19
518,154	0,19
518,584	0,19
519,014	0,19
519,443	0,19
519,873	0,18
520,303	0,19
520,732	0,19
521,161	0,19
521,591	0,19
522,02	0,19
522,45	0,19
522,879	0,19
523,308	0,19
523,737	0,19
524,166	0,19
524,595	0,19
525,024	0,19
525,453	0,19
525,882	0,19
526,311	0,19
526,74	0,19
527,169	0,19
527,597	0,19
528,026	0,19
528,455	0,19
528,883	0,19
529,312	0,2
529,74	0,19
530,168	0,19
530,597	0,19
531,025	0,19
531,453	0,19
531,882	0,2
532,31	0,19
532,738	0,19
533,166	0,2
533,594	0,19
534,022	0,2
534,45	0,19
534,878	0,19
535,305	0,19
535,733	0,19
536,161	0,2
536,588	0,2
537,016	0,2
537,444	0,2
537,871	0,2
538,299	0,19
538,726	0,19
539,153	0,19
539,581	0,2
540,008	0,2
540,435	0,2
540,862	0,2
541,289	0,2
541,716	0,2
542,143	0,2
542,57	0,2
542,997	0,2
543,424	0,2
543,851	0,2
544,277	0,2
544,704	0,2
545,131	0,2
545,557	0,2
545,984	0,2
546,41	0,2
546,837	0,2
547,263	0,2
547,69	0,2
548,116	0,2
548,542	0,2
548,968	0,2
549,394	0,2
549,82	0,2
550,246	0,21
550,672	0,2
551,098	0,2
551,524	0,2
551,95	0,2
552,376	0,2
552,802	0,2
553,227	0,2
553,653	0,2
554,078	0,2
554,504	0,2
554,929	0,21
555,355	0,2
555,78	0,2
556,206	0,2
556,631	0,21
557,056	0,21
557,481	0,21
557,906	0,21
558,331	0,21
558,756	0,21
559,181	0,21
559,606	0,21
560,031	0,21
560,456	0,21
560,881	0,21
561,305	0,21
561,73	0,21
562,155	0,21
562,579	0,21
563,004	0,21
563,428	0,21
563,853	0,21
564,277	0,21
564,701	0,21
565,126	0,21
565,55	0,21
565,974	0,21
566,398	0,21
566,822	0,21
567,246	0,21
567,67	0,22
568,094	0,21
568,518	0,21
568,941	0,21
569,365	0,21
569,789	0,21
570,213	0,21
570,636	0,21
571,06	0,21
571,483	0,21
571,907	0,21
572,33	0,21
572,753	0,21
573,177	0,21
573,6	0,21
574,023	0,21
574,446	0,21
574,869	0,21
575,292	0,21
575,715	0,21
576,138	0,21
576,561	0,21
576,984	0,22
577,407	0,21
577,829	0,21
578,252	0,21
578,675	0,21
579,097	0,21
579,52	0,22
579,942	0,22
580,364	0,22
580,787	0,22
581,209	0,22
581,631	0,21
582,054	0,21
582,476	0,21
582,898	0,21
583,32	0,22
583,742	0,22
584,164	0,22
584,586	0,22
585,008	0,22
585,429	0,22
585,851	0,22
586,273	0,22
586,694	0,22
587,116	0,23
587,538	0,22
587,959	0,22
588,38	0,23
588,802	0,23
589,223	0,23
589,644	0,23
590,066	0,23
590,487	0,23
590,908	0,23
591,329	0,23
591,75	0,23
592,171	0,23
592,592	0,23
593,013	0,23
593,434	0,23
593,854	0,23
594,275	0,23
594,696	0,23
595,116	0,24
595,537	0,24
595,957	0,24
596,378	0,24
596,798	0,24
597,218	0,24
597,639	0,24
598,059	0,24
598,479	0,24
598,899	0,24
599,319	0,24
599,739	0,24
600,159	0,24
600,579	0,24
600,999	0,24
601,419	0,25
601,839	0,25
602,259	0,25
602,678	0,25
603,098	0,25
603,517	0,25
603,937	0,25
604,356	0,25
604,776	0,25
605,195	0,25
605,614	0,25
606,034	0,25
606,453	0,25
606,872	0,25
607,291	0,25
607,71	0,25
608,129	0,25
608,548	0,25
608,967	0,26
609,386	0,26
609,805	0,26
610,223	0,26
610,642	0,26
611,061	0,26
611,479	0,26
611,898	0,26
612,316	0,26
612,735	0,27
613,153	0,26
613,571	0,27
613,99	0,27
614,408	0,27
614,826	0,27
615,244	0,27
615,662	0,27
616,08	0,27
616,498	0,27
616,916	0,28
617,334	0,28
617,752	0,28
618,169	0,28
618,587	0,28
619,005	0,28
619,422	0,28
619,84	0,28
620,257	0,29
620,675	0,29
621,092	0,29
621,509	0,29
621,927	0,29
622,344	0,29
622,761	0,29
623,178	0,29
623,595	0,29
624,012	0,29
624,429	0,29
624,846	0,3
625,263	0,3
625,68	0,3
626,097	0,3
626,513	0,3
626,93	0,3
627,346	0,3
627,763	0,3
628,179	0,31
628,596	0,3
629,012	0,31
629,429	0,31
629,845	0,31
630,261	0,31
630,677	0,31
631,093	0,32
631,509	0,32
631,925	0,32
632,341	0,32
632,757	0,32
633,173	0,32
633,589	0,32
634,005	0,33
634,42	0,32
634,836	0,32
635,252	0,33
635,667	0,33
636,083	0,33
636,498	0,33
636,913	0,33
637,329	0,33
637,744	0,34
638,159	0,34
638,574	0,34
638,99	0,34
639,405	0,34
639,82	0,34
640,235	0,35
640,65	0,34
641,064	0,35
641,479	0,35
641,894	0,35
642,309	0,35
642,723	0,35
643,138	0,35
643,552	0,35
643,967	0,36
644,381	0,36
644,796	0,36
645,21	0,36
645,624	0,37
646,038	0,36
646,453	0,37
646,867	0,37
647,281	0,37
647,695	0,37
648,109	0,37
648,523	0,38
648,936	0,38
649,35	0,38
649,764	0,38
650,178	0,38
650,591	0,38
651,005	0,39
651,418	0,38
651,832	0,39
652,245	0,39
652,659	0,39
653,072	0,39
653,485	0,4
653,898	0,39
654,312	0,4
654,725	0,4
655,138	0,4
655,551	0,39
655,964	0,39
656,377	0,39
656,789	0,4
657,202	0,4
657,615	0,41
658,028	0,41
658,44	0,41
658,853	0,42
659,265	0,42
659,678	0,42
660,09	0,42
660,503	0,42
660,915	0,42
661,327	0,43
661,739	0,43
662,152	0,43
662,564	0,43
662,976	0,43
663,388	0,43
663,8	0,44
664,211	0,44
664,623	0,44
665,035	0,44
665,447	0,45
665,858	0,44
666,27	0,45
666,682	0,45
667,093	0,45
667,505	0,46
667,916	0,46
668,327	0,46
668,739	0,46
669,15	0,46
669,561	0,46
669,972	0,47
670,383	0,47
670,794	0,47
671,205	0,47
671,616	0,48
672,027	0,47
672,438	0,48
672,849	0,48
673,259	0,48
673,67	0,48
674,08	0,49
674,491	0,49
674,901	0,49
675,312	0,5
675,722	0,5
676,133	0,49
676,543	0,5
676,953	0,5
677,363	0,5
677,773	0,51
678,183	0,51
678,593	0,51
679,003	0,51
679,413	0,52
679,823	0,51
680,233	0,52
680,643	0,52
681,052	0,52
681,462	0,52
681,872	0,52
682,281	0,53
682,691	0,53
683,1	0,53
683,509	0,54
683,919	0,54
684,328	0,54
684,737	0,54
685,146	0,54
685,555	0,55
685,964	0,54
686,373	0,55
686,782	0,55
687,191	0,56
687,6	0,55
688,009	0,56
688,417	0,56
688,826	0,57
689,235	0,56
689,643	0,56
690,052	0,57
690,46	0,57
690,869	0,57
691,277	0,57
691,685	0,58
692,093	0,58
692,502	0,58
692,91	0,59
693,318	0,59
693,726	0,59
694,134	0,59
694,542	0,59
694,949	0,6
695,357	0,6
695,765	0,6
696,173	0,6
696,58	0,6
696,988	0,61
697,395	0,61
697,803	0,61
698,21	0,61
698,618	0,62
699,025	0,62
699,432	0,62
699,839	0,62
700,247	0,62
700,654	0,63
701,061	0,63
701,468	0,63
701,875	0,63
702,281	0,63
702,688	0,64
703,095	0,64
703,502	0,65
703,908	0,64
704,315	0,65
704,722	0,65
705,128	0,65
705,534	0,65
705,941	0,65
706,347	0,66
706,753	0,66
707,16	0,66
707,566	0,66
707,972	0,67
708,378	0,67
708,784	0,67
709,19	0,67
709,596	0,68
710,002	0,67
710,407	0,68
710,813	0,68
711,219	0,69
711,625	0,69
712,03	0,69
712,436	0,69
712,841	0,69
713,246	0,7
713,652	0,69
714,057	0,7
714,462	0,7
714,868	0,7
715,273	0,71
715,678	0,71
716,083	0,71
716,488	0,71
716,893	0,71
717,297	0,72
717,702	0,72
718,107	0,72
718,512	0,72
718,916	0,73
719,321	0,73
719,725	0,73
720,13	0,73
720,534	0,73
720,939	0,73
721,343	0,74
721,747	0,74
722,151	0,74
722,556	0,74
722,96	0,75
723,364	0,75
723,768	0,75
724,172	0,75
724,576	0,75
724,979	0,75
725,383	0,76
725,787	0,76
726,19	0,76
726,594	0,76
726,998	0,77
727,401	0,76
727,805	0,77
728,208	0,77
728,611	0,78
729,014	0,78
729,418	0,78
729,821	0,77
730,224	0,78
730,627	0,78
731,03	0,79
731,433	0,79
731,836	0,79
732,239	0,79
732,641	0,79
733,044	0,8
733,447	0,8
733,849	0,8
734,252	0,8
734,654	0,8
735,057	0,81
735,459	0,81
735,862	0,81
736,264	0,82
736,666	0,81
737,068	0,81
737,47	0,81
737,872	0,82
738,274	0,82
738,676	0,82
739,078	0,83
739,48	0,82
739,882	0,83
740,284	0,83
740,685	0,83
741,087	0,83
741,488	0,84
741,89	0,84
742,291	0,84
742,693	0,84
743,094	0,85
743,495	0,84
743,897	0,85
744,298	0,84
744,699	0,85
745,1	0,84
745,501	0,85
745,902	0,85
746,303	0,85
746,704	0,86
747,105	0,85
747,505	0,86
747,906	0,86
748,307	0,86
748,707	0,86
749,108	0,86
749,508	0,87
749,908	0,86
750,309	0,86
750,709	0,86
751,109	0,87
751,51	0,87
751,91	0,88
752,31	0,88
752,71	0,87
753,11	0,88
753,51	0,88
753,909	0,88
754,309	0,89
754,709	0,88
755,109	0,88
755,508	0,89
755,908	0,89
756,307	0,89
756,707	0,89
757,106	0,89
757,505	0,9
757,905	0,89
758,304	0,89
758,703	0,9
759,102	0,89
759,501	0,9
759,9	0,9
760,299	0,9
760,698	0,9
761,097	0,9
761,496	0,9
761,895	0,91
762,293	0,9
762,692	0,9
763,09	0,9
763,489	0,91
763,887	0,91
764,286	0,91
764,684	0,91
765,082	0,91
765,481	0,91
765,879	0,92
766,277	0,91
766,675	0,92
767,073	0,91
767,471	0,91
767,869	0,92
768,267	0,92
768,664	0,91
769,062	0,92
769,46	0,91
769,857	0,92
770,255	0,93
770,653	0,92
771,05	0,93
771,447	0,93
771,845	0,93
772,242	0,93
772,639	0,93
773,036	0,93
773,433	0,93
773,831	0,93
774,228	0,93
774,624	0,93
775,021	0,93
775,418	0,94
775,815	0,94
776,212	0,93
776,608	0,94
777,005	0,94
777,401	0,94
777,798	0,94
778,194	0,94
778,591	0,94
778,987	0,94
779,383	0,93
779,78	0,94
780,176	0,94
780,572	0,94
780,968	0,94
781,364	0,94
781,76	0,94
782,156	0,94
782,551	0,94
782,947	0,96
783,343	0,94
783,739	0,95
784,134	0,94
784,53	0,94
784,925	0,94
785,321	0,94
785,716	0,95
786,111	0,95
786,507	0,96
786,902	0,95
787,297	0,95
787,692	0,95
788,087	0,95
788,482	0,96
788,877	0,96
789,272	0,95
789,667	0,95
790,061	0,95
790,456	0,95
790,851	0,95
791,245	0,96
791,64	0,94
792,034	0,95
792,429	0,95
792,823	0,96
793,217	0,94
793,612	0,95
794,006	0,95
794,4	0,95
794,794	0,95
795,188	0,96
795,582	0,96
795,976	0,94
796,37	0,96
796,763	0,95
797,157	0,95
797,551	0,95
797,944	0,96
798,338	0,95
798,731	0,95
799,125	0,95
799,518	0,96
799,912	0,96
800,305	0,95
800,698	0,95
801,091	0,96
801,484	0,96
801,877	0,97
802,27	0,95
802,663	0,95
803,056	0,95
803,449	0,95
803,842	0,94
804,235	0,96
804,627	0,96
805,02	0,95
805,412	0,95
805,805	0,96
806,197	0,95
806,59	0,96
806,982	0,96
807,374	0,96
807,766	0,95
808,159	0,95
808,551	0,95
808,943	0,96
809,335	0,94
809,727	0,96
810,118	0,97
810,51	0,95
810,902	0,95
811,294	0,95
811,685	0,96
812,077	0,95
812,468	0,95
812,86	0,95
813,251	0,95
813,643	0,95
814,034	0,94
814,425	0,95
814,816	0,95
815,207	0,94
815,598	0,95
815,989	0,95
816,38	0,94
816,771	0,93
817,162	0,94
817,553	0,95
817,944	0,95
818,334	0,95
818,725	0,95
819,115	0,95
819,506	0,94
819,896	0,95
820,287	0,94
820,677	0,95
821,067	0,95
821,457	0,94
821,848	0,95
822,238	0,94
822,628	0,95
823,018	0,94
823,408	0,95
823,797	0,95
824,187	0,94
824,577	0,95
824,967	0,95
825,356	0,95
825,746	0,93
826,135	0,94
826,525	0,95
826,914	0,94
827,304	0,95
827,693	0,93
828,082	0,94
828,471	0,93
828,86	0,94
829,249	0,94
829,638	0,95
830,027	0,95
830,416	0,93
830,805	0,95
831,194	0,93
831,582	0,94
831,971	0,94
832,36	0,94
832,748	0,94
833,137	0,94
833,525	0,92
833,914	0,93
834,302	0,94
834,69	0,93
835,078	0,93
835,466	0,92
835,854	0,94
836,243	0,93
836,63	0,93
837,018	0,94
837,406	0,93
837,794	0,93
838,182	0,93
838,569	0,93
838,957	0,93
839,345	0,93
839,732	0,91
840,12	0,93
840,507	0,92
840,894	0,92
841,282	0,92
841,669	0,91
842,056	0,92
842,443	0,92
842,83	0,92
843,217	0,93
843,604	0,92
843,991	0,91
844,378	0,91
844,764	0,93
845,151	0,92
845,538	0,94
845,924	0,92
846,311	0,93
846,697	0,92
847,084	0,93
847,47	0,92
847,856	0,92
848,242	0,92
848,629	0,91
849,015	0,91
849,401	0,92
849,787	0,9
850,173	0,92
850,559	0,92
850,944	0,9
851,33	0,9
851,716	0,9
852,102	0,91
852,487	0,9
852,873	0,91
853,258	0,91
853,644	0,92
854,029	0,91
854,414	0,9
854,799	0,9
855,185	0,91
855,57	0,9
855,955	0,9
856,34	0,92
856,725	0,9
857,11	0,89
857,495	0,89
857,879	0,91
858,264	0,9
858,649	0,89
859,033	0,91
859,418	0,91
859,802	0,9
860,187	0,89
860,571	0,91
860,955	0,89
861,34	0,89
861,724	0,89
862,108	0,89
862,492	0,89
862,876	0,9
863,26	0,89
863,644	0,89
864,028	0,89
864,412	0,89
864,795	0,89
865,179	0,9
865,563	0,88
865,946	0,89
866,33	0,9
866,713	0,89
867,097	0,86
867,48	0,89
867,863	0,88
868,246	0,9
868,629	0,89
869,013	0,87
869,396	0,89
869,779	0,88
870,161	0,9
870,544	0,89
870,927	0,88
871,31	0,87
871,693	0,87
872,075	0,86
872,458	0,87
872,84	0,87
873,223	0,88
873,605	0,88
873,987	0,87
874,37	0,88
874,752	0,86
875,134	0,86
875,516	0,89
875,898	0,87
876,28	0,87
876,662	0,85
877,044	0,87
877,426	0,88
877,807	0,87
878,189	0,87
878,571	0,87
878,952	0,86
879,334	0,85
879,715	0,88
880,097	0,9
880,478	0,86
880,859	0,87
881,24	0,87
881,622	0,88
882,003	0,89
882,384	0,87
882,765	0,89
883,146	0,86
883,526	0,87
883,907	0,86
884,288	0,87
884,669	0,86
885,049	0,87
885,43	0,84
885,81	0,87
886,191	0,87
886,571	0,87
886,952	0,86
887,332	0,86
887,712	0,86
888,092	0,86
888,472	0,87
888,852	0,87
889,232	0,86
889,612	0,84
889,992	0,84
890,372	0,87
890,752	0,87
891,131	0,86
891,511	0,84
891,89	0,84
892,27	0,86
892,649	0,86
893,029	0,87
893,408	0,87
893,787	0,84
894,167	0,87
894,546	0,88
894,925	0,87
895,304	0,88
895,683	0,88
896,062	0,86
896,441	0,87
896,819	0,86
897,198	0,86
897,577	0,87
897,955	0,88
898,334	0,87
898,712	0,84
899,091	0,86
899,469	0,84
899,848	0,86
900,226	0,87
900,604	0,87
900,982	0,86
901,36	0,85
901,738	0,85
902,116	0,83
902,494	0,86
902,872	0,86
903,25	0,84
903,628	0,84
904,005	0,84
904,383	0,83
904,76	0,83
905,138	0,83
905,515	0,85
905,893	0,85
906,27	0,85
906,647	0,86
907,024	0,84
907,402	0,85
907,779	0,85
908,156	0,85
908,533	0,84
908,91	0,85
909,286	0,84
909,663	0,84
910,04	0,86
910,417	0,85
910,793	0,82
911,17	0,84
911,546	0,82
911,923	0,82
912,299	0,84
912,675	0,84
913,051	0,83
913,428	0,82
913,804	0,84
914,18	0,84
914,556	0,84
914,932	0,8
915,308	0,83
915,683	0,85
916,059	0,83
916,435	0,83
916,811	0,84
917,186	0,81
917,562	0,85
917,937	0,82
918,313	0,79
918,688	0,82
919,063	0,81
919,438	0,81
919,814	0,81
920,189	0,8
920,564	0,8
920,939	0,87
921,314	0,81
921,689	0,79
922,063	0,8
922,438	0,8
922,813	0,78
923,187	0,78
923,562	0,8
923,936	0,84
924,311	0,82
924,685	0,82
925,06	0,8
925,434	0,8
925,808	0,77
926,182	0,78
926,556	0,76
926,93	0,81
927,304	0,79
927,678	0,77
928,052	0,79
928,426	0,79
928,8	0,79
929,173	0,76
929,547	0,79
929,92	0,78
930,294	0,78
930,667	0,77
931,041	0,76
931,414	0,78
931,787	0,82
932,161	0,78
932,534	0,78
932,907	0,77
933,28	0,78
933,653	0,79
934,026	0,79
934,398	0,75
934,771	0,8
935,144	0,76
935,517	0,76
935,889	0,74
936,262	0,77
936,634	0,8
937,007	0,77
937,379	0,76
937,751	0,76
938,123	0,77
938,496	0,71
938,868	0,74
939,24	0,75
939,612	0,73
939,984	0,78
940,355	0,69
940,727	0,74
941,099	0,72
941,471	0,77
941,842	0,71
942,214	0,77
942,585	0,78
942,957	0,74
943,328	0,72
943,7	0,7
944,071	0,71
944,442	0,72
944,813	0,82
945,184	0,74
945,555	0,73
945,926	0,75
946,297	0,73
946,668	0,73
947,039	0,73
947,409	0,7
947,78	0,74
948,151	0,68
948,521	0,65
948,892	0,77
949,262	0,71
949,633	0,73
950,003	0,75
950,373	0,66
950,743	0,66
951,113	0,69
951,483	0,75
951,853	0,79
952,223	0,7
952,593	0,66
952,963	0,68
953,333	0,71
953,702	0,69
954,072	0,75
954,442	0,71
954,811	0,73
955,181	0,64
955,55	0,69
955,919	0,77
956,289	0,76
956,658	0,64
957,027	0,73
957,396	0,68
957,765	0,68
958,134	0,67
958,503	0,7
958,872	0,58
959,24	0,7
959,609	0,66
959,978	0,67
960,346	0,65
960,715	0,68
961,083	0,69
961,452	0,68
961,82	0,61
962,188	0,7
962,557	0,67
962,925	0,64
963,293	0,62
963,661	0,72
964,029	0,74
964,397	0,71
964,765	0,72
965,133	0,8
965,5	0,67
965,868	0,71
966,236	0,57
966,603	0,59
966,971	0,69
967,338	0,64
967,706	0,64
968,073	0,61
968,44	0,6
968,807	0,61
969,174	0,72
969,542	0,59
969,909	0,8
970,275	0,63
970,642	0,62
971,009	0,86
971,376	0,69
971,743	0,61
972,109	0,82
972,476	0,61
972,842	0,63
973,209	0,66
973,575	0,7
973,942	0,56
974,308	0,78
974,674	0,61
975,04	0,82
975,406	0,77
975,772	1,05
976,138	0,59
976,504	0,6
976,87	0,69
977,236	0,54
977,602	0,53
977,967	0,54
978,333	0,56
978,698	1,04
979,064	0,7
979,429	0,53
979,795	0,55
980,16	0,59
980,525	0,52
980,89	0,82
981,255	0,6
981,621	0,85
981,986	0,78
982,35	0,58
982,715	0,66
983,08	0,63
983,445	0,69
983,81	0,74
984,174	0,61
984,539	0,67
984,903	0,76
985,268	1,05
985,632	0,53
985,996	0,85
986,361	0,61
986,725	0,53
987,089	0,67
987,453	0,67
987,817	0,7
988,181	0,78
988,545	0,57
988,909	1
989,272	0,51
989,636	0,75
990	0,59
990,363	0,58
990,727	0,79
991,09	0,52
991,454	0,64
991,817	0,87
992,18	0,85
992,543	0,64
992,907	0,77
993,27	0,63
993,633	0,47
993,996	0,62
994,359	0,62
994,721	1,41
995,084	0,51
995,447	0,4
995,81	0,87
996,172	0,87
996,535	0,8
996,897	0,95
997,259	0,68
997,622	0,73
997,984	0,83
998,346	0,74
998,708	0,51
999,071	0,68
999,433	0,67
999,795	0,7
1000,156	0,73
1000,518	0,93
1000,88	0,79
1001,242	0,7
1001,603	0,62
1001,965	0,93
1002,327	0,88
1002,688	0,52
1003,049	0,59
1003,411	0,58
1003,772	0,51
1004,133	0,48
1004,495	1,08
1004,856	0,52
1005,217	0,68
1005,578	0,73
1005,939	0,68
1006,299	0,81
1006,66	0,72
1007,021	0,56
1007,382	0,57
1007,742	0,86
1008,103	0,7
1008,463	0,58
1008,824	0,8
1009,184	0,64
1009,544	0,66
1009,904	0,72
1010,265	0,66
1010,625	0,64
1010,985	0,68
1011,345	0,81
1011,705	1,06
1012,065	0,65
1012,424	0,65
1012,784	0,74
1013,144	0,55
1013,503	0,55
1013,863	0,71
1014,222	0,77
1014,582	0,62
1014,941	1,07
1015,3	0,67
1015,66	0,59
1016,019	1,11
1016,378	0,88
1016,737	0,71
1017,096	0,38
1017,455	0,59
1017,814	0,68
1018,173	0,74
1018,531	0,81
1018,89	0,78
1019,249	0,64
1019,607	0,54
1019,966	0,61
1020,324	0,68
1020,682	0,73
1021,041	0,95
1021,399	0,52
1021,757	0,74
1022,115	0,84
1022,473	0,48
1022,831	0,52
1023,189	0,63
1023,547	0,65
1023,905	0,73
1024,263	0,61
1024,62	0,72
1024,978	0,86
1025,335	0,88
1025,693	0,66
1026,05	0,8
1026,408	0,56
1026,765	0,61
1027,122	0,59
1027,479	1,11
1027,837	0,6
1028,194	0,45
1028,551	0,5
1028,908	0,53
1029,264	0,49
1029,621	0,77
1029,978	0,72
1030,335	0,6
1030,691	-0
1031,048	0,54
1031,404	0,58
1031,761	0,38
1032,117	0,54
1032,473	0,85
1032,83	0,84
1033,186	1,23
1033,542	0,62
1033,898	0,63
1034,254	0,78
1034,61	0,78
1034,966	0,78
