Data from Absorbance__9__14-30-46-803.txt Node

Date: Wed Apr 28 14:30:46 CEST 2021
User: thoma
Spectrometer: FLMS05507
Trigger mode: 0
Integration Time (sec): 6,810000E-3
Scans to average: 10
Electric dark correction enabled: true
Nonlinearity correction enabled: false
Boxcar width: 0
XAxis mode: Wavelengths
Number of Pixels in Spectrum: 2048
>>>>>Begin Spectral Data<<<<<
188,96	-0
189,424	-0
189,887	-0
190,351	-0
190,815	0,22
191,279	-0,84
191,742	-0
192,206	0,21
192,669	0,95
193,133	-0
193,596	0,01
194,06	-0
194,523	-0,2
194,987	0,48
195,45	-1,23
195,913	0,4
196,376	0,23
196,84	0,09
197,303	-0,71
197,766	-0,49
198,229	-0,3
198,692	0,63
199,155	-0
199,618	1,79
200,081	1,87
200,543	1,88
201,006	1,86
201,469	1,91
201,932	1,92
202,394	1,91
202,857	1,95
203,32	1,98
203,782	1,95
204,245	1,96
204,707	1,98
205,169	2,03
205,632	2,01
206,094	2
206,556	2,01
207,019	2,02
207,481	2,03
207,943	2,01
208,405	2,06
208,867	2,02
209,329	2,03
209,791	1,99
210,253	2,05
210,715	2,03
211,177	1,99
211,639	1,97
212,1	2
212,562	1,98
213,024	1,98
213,485	1,93
213,947	1,91
214,408	1,89
214,87	1,83
215,331	1,78
215,793	1,73
216,254	1,7
216,715	1,63
217,177	1,59
217,638	1,53
218,099	1,47
218,56	1,41
219,021	1,36
219,482	1,29
219,944	1,23
220,404	1,19
220,865	1,13
221,326	1,08
221,787	1,03
222,248	0,99
222,709	0,95
223,169	0,91
223,63	0,87
224,091	0,84
224,551	0,81
225,012	0,79
225,472	0,76
225,933	0,74
226,393	0,72
226,854	0,71
227,314	0,69
227,774	0,68
228,234	0,66
228,695	0,65
229,155	0,65
229,615	0,64
230,075	0,63
230,535	0,63
230,995	0,62
231,455	0,61
231,915	0,61
232,375	0,61
232,834	0,6
233,294	0,61
233,754	0,61
234,214	0,6
234,673	0,6
235,133	0,6
235,592	0,6
236,052	0,6
236,511	0,6
236,971	0,6
237,43	0,6
237,889	0,59
238,349	0,59
238,808	0,59
239,267	0,59
239,726	0,59
240,185	0,59
240,644	0,59
241,103	0,59
241,562	0,58
242,021	0,58
242,48	0,58
242,939	0,58
243,398	0,58
243,857	0,58
244,315	0,57
244,774	0,57
245,233	0,57
245,691	0,56
246,15	0,56
246,608	0,56
247,067	0,55
247,525	0,55
247,983	0,55
248,442	0,54
248,9	0,54
249,358	0,53
249,816	0,53
250,274	0,52
250,733	0,52
251,191	0,52
251,649	0,51
252,107	0,51
252,564	0,5
253,022	0,5
253,48	0,49
253,938	0,48
254,396	0,48
254,853	0,47
255,311	0,47
255,769	0,46
256,226	0,45
256,684	0,45
257,141	0,44
257,599	0,44
258,056	0,43
258,513	0,43
258,971	0,42
259,428	0,42
259,885	0,41
260,342	0,41
260,799	0,4
261,256	0,4
261,714	0,39
262,171	0,39
262,627	0,38
263,084	0,38
263,541	0,37
263,998	0,37
264,455	0,36
264,912	0,36
265,368	0,35
265,825	0,35
266,281	0,35
266,738	0,34
267,194	0,34
267,651	0,33
268,107	0,33
268,564	0,32
269,02	0,32
269,476	0,32
269,933	0,32
270,389	0,31
270,845	0,31
271,301	0,31
271,757	0,3
272,213	0,3
272,669	0,3
273,125	0,3
273,581	0,29
274,037	0,29
274,492	0,29
274,948	0,29
275,404	0,28
275,86	0,28
276,315	0,28
276,771	0,28
277,226	0,27
277,682	0,27
278,137	0,27
278,593	0,27
279,048	0,27
279,503	0,26
279,958	0,26
280,414	0,26
280,869	0,26
281,324	0,26
281,779	0,26
282,234	0,26
282,689	0,25
283,144	0,25
283,599	0,25
284,054	0,25
284,508	0,25
284,963	0,25
285,418	0,24
285,873	0,24
286,327	0,24
286,782	0,24
287,236	0,24
287,691	0,24
288,145	0,23
288,6	0,23
289,054	0,23
289,508	0,23
289,963	0,23
290,417	0,23
290,871	0,23
291,325	0,23
291,779	0,23
292,233	0,22
292,687	0,22
293,141	0,22
293,595	0,22
294,049	0,22
294,503	0,22
294,957	0,22
295,41	0,22
295,864	0,21
296,318	0,21
296,771	0,21
297,225	0,21
297,678	0,21
298,132	0,21
298,585	0,21
299,039	0,21
299,492	0,2
299,945	0,21
300,398	0,2
300,852	0,2
301,305	0,2
301,758	0,2
302,211	0,2
302,664	0,2
303,117	0,2
303,57	0,2
304,023	0,2
304,476	0,2
304,928	0,2
305,381	0,19
305,834	0,19
306,286	0,19
306,739	0,2
307,192	0,19
307,644	0,19
308,097	0,19
308,549	0,19
309,001	0,19
309,454	0,19
309,906	0,19
310,358	0,18
310,81	0,19
311,263	0,19
311,715	0,19
312,167	0,18
312,619	0,18
313,071	0,18
313,523	0,18
313,975	0,18
314,426	0,18
314,878	0,18
315,33	0,18
315,782	0,18
316,233	0,18
316,685	0,18
317,136	0,18
317,588	0,18
318,039	0,18
318,491	0,18
318,942	0,18
319,393	0,18
319,845	0,18
320,296	0,18
320,747	0,18
321,198	0,17
321,649	0,17
322,101	0,17
322,552	0,17
323,003	0,17
323,453	0,16
323,904	0,16
324,355	0,17
324,806	0,16
325,257	0,16
325,707	0,17
326,158	0,17
326,609	0,17
327,059	0,16
327,51	0,16
327,96	0,16
328,411	0,16
328,861	0,16
329,311	0,16
329,762	0,16
330,212	0,16
330,662	0,16
331,112	0,16
331,562	0,16
332,012	0,15
332,462	0,15
332,912	0,15
333,362	0,15
333,812	0,15
334,262	0,15
334,712	0,16
335,161	0,15
335,611	0,15
336,061	0,15
336,51	0,15
336,96	0,15
337,409	0,15
337,859	0,15
338,308	0,14
338,758	0,14
339,207	0,15
339,656	0,14
340,105	0,15
340,555	0,15
341,004	0,14
341,453	0,14
341,902	0,14
342,351	0,14
342,8	0,14
343,249	0,14
343,698	0,14
344,146	0,14
344,595	0,14
345,044	0,14
345,493	0,14
345,941	0,14
346,39	0,14
346,838	0,14
347,287	0,14
347,735	0,13
348,184	0,14
348,632	0,13
349,08	0,13
349,529	0,13
349,977	0,14
350,425	0,14
350,873	0,14
351,321	0,14
351,769	0,13
352,217	0,13
352,665	0,14
353,113	0,14
353,561	0,13
354,009	0,13
354,456	0,13
354,904	0,13
355,352	0,13
355,799	0,13
356,247	0,14
356,694	0,13
357,142	0,13
357,589	0,13
358,037	0,14
358,484	0,13
358,931	0,13
359,379	0,13
359,826	0,13
360,273	0,13
360,72	0,13
361,167	0,13
361,614	0,13
362,061	0,13
362,508	0,13
362,955	0,13
363,402	0,13
363,848	0,12
364,295	0,13
364,742	0,12
365,188	0,13
365,635	0,13
366,082	0,13
366,528	0,13
366,975	0,13
367,421	0,13
367,867	0,13
368,314	0,13
368,76	0,13
369,206	0,13
369,652	0,12
370,098	0,12
370,545	0,13
370,991	0,12
371,437	0,12
371,882	0,13
372,328	0,13
372,774	0,12
373,22	0,12
373,666	0,13
374,111	0,13
374,557	0,13
375,003	0,13
375,448	0,13
375,894	0,13
376,339	0,13
376,785	0,12
377,23	0,13
377,675	0,12
378,121	0,13
378,566	0,13
379,011	0,13
379,456	0,13
379,901	0,13
380,346	0,13
380,791	0,13
381,236	0,12
381,681	0,13
382,126	0,12
382,571	0,13
383,016	0,13
383,461	0,13
383,905	0,13
384,35	0,13
384,794	0,13
385,239	0,13
385,683	0,13
386,128	0,12
386,572	0,13
387,017	0,13
387,461	0,13
387,905	0,13
388,349	0,13
388,794	0,12
389,238	0,13
389,682	0,12
390,126	0,12
390,57	0,13
391,014	0,13
391,457	0,13
391,901	0,13
392,345	0,13
392,789	0,13
393,233	0,13
393,676	0,13
394,12	0,13
394,563	0,13
395,007	0,13
395,45	0,13
395,894	0,13
396,337	0,13
396,78	0,13
397,224	0,13
397,667	0,13
398,11	0,13
398,553	0,13
398,996	0,12
399,439	0,13
399,882	0,13
400,325	0,13
400,768	0,13
401,211	0,13
401,654	0,13
402,096	0,13
402,539	0,13
402,982	0,13
403,424	0,13
403,867	0,13
404,309	0,13
404,752	0,13
405,194	0,14
405,637	0,13
406,079	0,14
406,521	0,13
406,963	0,13
407,406	0,13
407,848	0,14
408,29	0,14
408,732	0,14
409,174	0,13
409,616	0,13
410,058	0,13
410,499	0,14
410,941	0,14
411,383	0,13
411,825	0,13
412,266	0,14
412,708	0,14
413,15	0,13
413,591	0,14
414,033	0,13
414,474	0,14
414,915	0,13
415,357	0,13
415,798	0,13
416,239	0,14
416,68	0,14
417,121	0,14
417,563	0,14
418,004	0,14
418,445	0,13
418,885	0,13
419,326	0,14
419,767	0,14
420,208	0,13
420,649	0,14
421,089	0,14
421,53	0,14
421,971	0,14
422,411	0,14
422,852	0,14
423,292	0,14
423,733	0,14
424,173	0,14
424,613	0,14
425,054	0,14
425,494	0,15
425,934	0,14
426,374	0,14
426,814	0,14
427,254	0,15
427,694	0,15
428,134	0,15
428,574	0,15
429,014	0,14
429,454	0,15
429,893	0,15
430,333	0,15
430,773	0,15
431,212	0,15
431,652	0,15
432,091	0,15
432,531	0,15
432,97	0,16
433,41	0,16
433,849	0,16
434,288	0,15
434,727	0,15
435,167	0,16
435,606	0,16
436,045	0,16
436,484	0,16
436,923	0,16
437,362	0,16
437,801	0,16
438,239	0,16
438,678	0,16
439,117	0,17
439,556	0,17
439,994	0,17
440,433	0,17
440,871	0,17
441,31	0,17
441,748	0,16
442,187	0,17
442,625	0,18
443,063	0,17
443,502	0,17
443,94	0,17
444,378	0,17
444,816	0,17
445,254	0,18
445,692	0,18
446,13	0,18
446,568	0,18
447,006	0,18
447,444	0,18
447,881	0,18
448,319	0,18
448,757	0,18
449,194	0,19
449,632	0,18
450,07	0,19
450,507	0,19
450,944	0,19
451,382	0,19
451,819	0,19
452,256	0,19
452,694	0,19
453,131	0,2
453,568	0,2
454,005	0,2
454,442	0,2
454,879	0,2
455,316	0,21
455,753	0,2
456,19	0,2
456,627	0,21
457,063	0,21
457,5	0,2
457,937	0,2
458,373	0,2
458,81	0,21
459,246	0,21
459,683	0,21
460,119	0,2
460,556	0,21
460,992	0,21
461,428	0,21
461,864	0,22
462,301	0,21
462,737	0,21
463,173	0,21
463,609	0,22
464,045	0,22
464,481	0,21
464,917	0,22
465,352	0,22
465,788	0,21
466,224	0,22
466,66	0,22
467,095	0,23
467,531	0,22
467,966	0,23
468,402	0,22
468,837	0,23
469,273	0,22
469,708	0,23
470,143	0,22
470,578	0,23
471,014	0,23
471,449	0,23
471,884	0,24
472,319	0,23
472,754	0,23
473,189	0,23
473,624	0,23
474,059	0,23
474,493	0,24
474,928	0,23
475,363	0,24
475,797	0,23
476,232	0,24
476,667	0,24
477,101	0,24
477,536	0,24
477,97	0,25
478,404	0,24
478,839	0,24
479,273	0,24
479,707	0,24
480,141	0,25
480,575	0,24
481,009	0,25
481,444	0,25
481,877	0,24
482,311	0,25
482,745	0,24
483,179	0,25
483,613	0,25
484,047	0,25
484,48	0,24
484,914	0,25
485,347	0,25
485,781	0,25
486,214	0,25
486,648	0,25
487,081	0,25
487,515	0,25
487,948	0,25
488,381	0,25
488,814	0,26
489,247	0,26
489,68	0,25
490,113	0,26
490,546	0,25
490,979	0,26
491,412	0,26
491,845	0,25
492,278	0,26
492,711	0,26
493,143	0,26
493,576	0,26
494,009	0,26
494,441	0,26
494,874	0,26
495,306	0,26
495,738	0,27
496,171	0,27
496,603	0,26
497,035	0,27
497,467	0,27
497,9	0,27
498,332	0,27
498,764	0,27
499,196	0,27
499,628	0,27
500,06	0,27
500,491	0,27
500,923	0,27
501,355	0,27
501,787	0,27
502,218	0,27
502,65	0,27
503,081	0,27
503,513	0,28
503,944	0,27
504,376	0,27
504,807	0,27
505,238	0,27
505,67	0,28
506,101	0,28
506,532	0,28
506,963	0,27
507,394	0,28
507,825	0,28
508,256	0,28
508,687	0,28
509,118	0,28
509,549	0,28
509,979	0,28
510,41	0,28
510,841	0,28
511,271	0,28
511,702	0,28
512,132	0,28
512,563	0,28
512,993	0,28
513,424	0,28
513,854	0,27
514,284	0,28
514,714	0,28
515,145	0,28
515,575	0,28
516,005	0,28
516,435	0,27
516,865	0,28
517,295	0,28
517,724	0,27
518,154	0,27
518,584	0,27
519,014	0,28
519,443	0,28
519,873	0,27
520,303	0,27
520,732	0,27
521,161	0,27
521,591	0,27
522,02	0,27
522,45	0,27
522,879	0,27
523,308	0,26
523,737	0,27
524,166	0,26
524,595	0,26
525,024	0,26
525,453	0,26
525,882	0,26
526,311	0,26
526,74	0,26
527,169	0,26
527,597	0,26
528,026	0,25
528,455	0,26
528,883	0,26
529,312	0,25
529,74	0,25
530,168	0,25
530,597	0,25
531,025	0,25
531,453	0,25
531,882	0,25
532,31	0,25
532,738	0,24
533,166	0,24
533,594	0,24
534,022	0,24
534,45	0,24
534,878	0,24
535,305	0,24
535,733	0,23
536,161	0,23
536,588	0,23
537,016	0,23
537,444	0,23
537,871	0,23
538,299	0,23
538,726	0,22
539,153	0,22
539,581	0,22
540,008	0,22
540,435	0,22
540,862	0,22
541,289	0,22
541,716	0,21
542,143	0,22
542,57	0,22
542,997	0,21
543,424	0,21
543,851	0,21
544,277	0,21
544,704	0,21
545,131	0,2
545,557	0,2
545,984	0,2
546,41	0,2
546,837	0,2
547,263	0,2
547,69	0,2
548,116	0,2
548,542	0,19
548,968	0,19
549,394	0,19
549,82	0,19
550,246	0,19
550,672	0,19
551,098	0,19
551,524	0,18
551,95	0,19
552,376	0,19
552,802	0,18
553,227	0,18
553,653	0,18
554,078	0,18
554,504	0,18
554,929	0,18
555,355	0,18
555,78	0,18
556,206	0,17
556,631	0,17
557,056	0,17
557,481	0,17
557,906	0,17
558,331	0,17
558,756	0,17
559,181	0,17
559,606	0,17
560,031	0,17
560,456	0,16
560,881	0,16
561,305	0,16
561,73	0,17
562,155	0,16
562,579	0,16
563,004	0,16
563,428	0,16
563,853	0,16
564,277	0,16
564,701	0,16
565,126	0,16
565,55	0,16
565,974	0,15
566,398	0,15
566,822	0,15
567,246	0,15
567,67	0,15
568,094	0,15
568,518	0,15
568,941	0,15
569,365	0,15
569,789	0,15
570,213	0,15
570,636	0,14
571,06	0,15
571,483	0,15
571,907	0,14
572,33	0,14
572,753	0,14
573,177	0,14
573,6	0,14
574,023	0,14
574,446	0,14
574,869	0,14
575,292	0,14
575,715	0,14
576,138	0,14
576,561	0,14
576,984	0,14
577,407	0,14
577,829	0,14
578,252	0,13
578,675	0,14
579,097	0,13
579,52	0,13
579,942	0,13
580,364	0,14
580,787	0,14
581,209	0,14
581,631	0,13
582,054	0,13
582,476	0,13
582,898	0,13
583,32	0,13
583,742	0,13
584,164	0,14
584,586	0,13
585,008	0,13
585,429	0,13
585,851	0,13
586,273	0,13
586,694	0,13
587,116	0,13
587,538	0,13
587,959	0,13
588,38	0,13
588,802	0,13
589,223	0,13
589,644	0,13
590,066	0,13
590,487	0,13
590,908	0,13
591,329	0,13
591,75	0,13
592,171	0,13
592,592	0,13
593,013	0,13
593,434	0,13
593,854	0,13
594,275	0,13
594,696	0,13
595,116	0,13
595,537	0,13
595,957	0,13
596,378	0,13
596,798	0,13
597,218	0,13
597,639	0,13
598,059	0,13
598,479	0,13
598,899	0,13
599,319	0,13
599,739	0,13
600,159	0,13
600,579	0,12
600,999	0,12
601,419	0,13
601,839	0,13
602,259	0,13
602,678	0,12
603,098	0,13
603,517	0,12
603,937	0,12
604,356	0,12
604,776	0,13
605,195	0,12
605,614	0,12
606,034	0,12
606,453	0,12
606,872	0,12
607,291	0,12
607,71	0,12
608,129	0,12
608,548	0,12
608,967	0,12
609,386	0,12
609,805	0,12
610,223	0,12
610,642	0,12
611,061	0,12
611,479	0,12
611,898	0,12
612,316	0,12
612,735	0,12
613,153	0,12
613,571	0,12
613,99	0,12
614,408	0,12
614,826	0,12
615,244	0,12
615,662	0,12
616,08	0,12
616,498	0,12
616,916	0,13
617,334	0,12
617,752	0,12
618,169	0,12
618,587	0,12
619,005	0,12
619,422	0,12
619,84	0,12
620,257	0,12
620,675	0,12
621,092	0,12
621,509	0,12
621,927	0,12
622,344	0,12
622,761	0,12
623,178	0,12
623,595	0,12
624,012	0,12
624,429	0,12
624,846	0,12
625,263	0,12
625,68	0,12
626,097	0,12
626,513	0,12
626,93	0,12
627,346	0,12
627,763	0,12
628,179	0,12
628,596	0,12
629,012	0,12
629,429	0,12
629,845	0,12
630,261	0,12
630,677	0,12
631,093	0,12
631,509	0,12
631,925	0,12
632,341	0,12
632,757	0,12
633,173	0,12
633,589	0,12
634,005	0,12
634,42	0,12
634,836	0,12
635,252	0,12
635,667	0,12
636,083	0,12
636,498	0,12
636,913	0,12
637,329	0,12
637,744	0,12
638,159	0,12
638,574	0,12
638,99	0,12
639,405	0,12
639,82	0,12
640,235	0,12
640,65	0,12
641,064	0,12
641,479	0,12
641,894	0,12
642,309	0,12
642,723	0,12
643,138	0,12
643,552	0,12
643,967	0,12
644,381	0,12
644,796	0,12
645,21	0,12
645,624	0,12
646,038	0,12
646,453	0,12
646,867	0,12
647,281	0,12
647,695	0,12
648,109	0,12
648,523	0,12
648,936	0,12
649,35	0,11
649,764	0,12
650,178	0,12
650,591	0,12
651,005	0,12
651,418	0,12
651,832	0,12
652,245	0,12
652,659	0,12
653,072	0,12
653,485	0,12
653,898	0,12
654,312	0,12
654,725	0,11
655,138	0,11
655,551	0,12
655,964	0,11
656,377	0,11
656,789	0,11
657,202	0,11
657,615	0,12
658,028	0,12
658,44	0,12
658,853	0,12
659,265	0,11
659,678	0,12
660,09	0,11
660,503	0,11
660,915	0,11
661,327	0,11
661,739	0,11
662,152	0,11
662,564	0,11
662,976	0,11
663,388	0,11
663,8	0,11
664,211	0,11
664,623	0,11
665,035	0,11
665,447	0,11
665,858	0,11
666,27	0,11
666,682	0,11
667,093	0,11
667,505	0,11
667,916	0,11
668,327	0,11
668,739	0,11
669,15	0,11
669,561	0,11
669,972	0,11
670,383	0,11
670,794	0,11
671,205	0,11
671,616	0,11
672,027	0,11
672,438	0,11
672,849	0,11
673,259	0,11
673,67	0,11
674,08	0,11
674,491	0,11
674,901	0,11
675,312	0,11
675,722	0,11
676,133	0,11
676,543	0,11
676,953	0,11
677,363	0,11
677,773	0,11
678,183	0,11
678,593	0,11
679,003	0,11
679,413	0,11
679,823	0,11
680,233	0,11
680,643	0,11
681,052	0,1
681,462	0,1
681,872	0,11
682,281	0,11
682,691	0,11
683,1	0,1
683,509	0,1
683,919	0,11
684,328	0,1
684,737	0,11
685,146	0,1
685,555	0,11
685,964	0,1
686,373	0,1
686,782	0,11
687,191	0,11
687,6	0,1
688,009	0,1
688,417	0,1
688,826	0,1
689,235	0,1
689,643	0,1
690,052	0,1
690,46	0,1
690,869	0,1
691,277	0,1
691,685	0,1
692,093	0,1
692,502	0,1
692,91	0,1
693,318	0,1
693,726	0,1
694,134	0,1
694,542	0,1
694,949	0,1
695,357	0,11
695,765	0,1
696,173	0,1
696,58	0,1
696,988	0,1
697,395	0,1
697,803	0,1
698,21	0,1
698,618	0,1
699,025	0,1
699,432	0,1
699,839	0,1
700,247	0,1
700,654	0,1
701,061	0,1
701,468	0,1
701,875	0,1
702,281	0,1
702,688	0,1
703,095	0,1
703,502	0,1
703,908	0,1
704,315	0,1
704,722	0,1
705,128	0,1
705,534	0,1
705,941	0,1
706,347	0,1
706,753	0,1
707,16	0,1
707,566	0,1
707,972	0,1
708,378	0,1
708,784	0,1
709,19	0,1
709,596	0,1
710,002	0,1
710,407	0,1
710,813	0,1
711,219	0,1
711,625	0,1
712,03	0,1
712,436	0,1
712,841	0,1
713,246	0,1
713,652	0,1
714,057	0,1
714,462	0,1
714,868	0,1
715,273	0,1
715,678	0,1
716,083	0,1
716,488	0,1
716,893	0,1
717,297	0,1
717,702	0,1
718,107	0,1
718,512	0,1
718,916	0,1
719,321	0,1
719,725	0,1
720,13	0,1
720,534	0,1
720,939	0,1
721,343	0,1
721,747	0,1
722,151	0,1
722,556	0,1
722,96	0,1
723,364	0,1
723,768	0,1
724,172	0,1
724,576	0,1
724,979	0,1
725,383	0,1
725,787	0,1
726,19	0,1
726,594	0,1
726,998	0,1
727,401	0,1
727,805	0,1
728,208	0,1
728,611	0,1
729,014	0,1
729,418	0,1
729,821	0,1
730,224	0,1
730,627	0,1
731,03	0,1
731,433	0,1
731,836	0,1
732,239	0,1
732,641	0,1
733,044	0,1
733,447	0,1
733,849	0,1
734,252	0,1
734,654	0,1
735,057	0,1
735,459	0,1
735,862	0,1
736,264	0,1
736,666	0,1
737,068	0,1
737,47	0,1
737,872	0,1
738,274	0,1
738,676	0,1
739,078	0,1
739,48	0,1
739,882	0,1
740,284	0,1
740,685	0,1
741,087	0,1
741,488	0,1
741,89	0,1
742,291	0,1
742,693	0,1
743,094	0,1
743,495	0,1
743,897	0,1
744,298	0,1
744,699	0,1
745,1	0,1
745,501	0,1
745,902	0,1
746,303	0,1
746,704	0,1
747,105	0,1
747,505	0,1
747,906	0,1
748,307	0,1
748,707	0,1
749,108	0,1
749,508	0,1
749,908	0,1
750,309	0,1
750,709	0,1
751,109	0,1
751,51	0,1
751,91	0,1
752,31	0,1
752,71	0,1
753,11	0,1
753,51	0,1
753,909	0,1
754,309	0,1
754,709	0,1
755,109	0,1
755,508	0,1
755,908	0,1
756,307	0,1
756,707	0,1
757,106	0,1
757,505	0,1
757,905	0,1
758,304	0,1
758,703	0,1
759,102	0,1
759,501	0,1
759,9	0,1
760,299	0,1
760,698	0,1
761,097	0,1
761,496	0,1
761,895	0,1
762,293	0,1
762,692	0,1
763,09	0,1
763,489	0,1
763,887	0,1
764,286	0,1
764,684	0,1
765,082	0,1
765,481	0,1
765,879	0,1
766,277	0,1
766,675	0,1
767,073	0,09
767,471	0,1
767,869	0,1
768,267	0,1
768,664	0,1
769,062	0,09
769,46	0,09
769,857	0,1
770,255	0,1
770,653	0,1
771,05	0,1
771,447	0,1
771,845	0,1
772,242	0,09
772,639	0,1
773,036	0,1
773,433	0,1
773,831	0,1
774,228	0,1
774,624	0,1
775,021	0,1
775,418	0,1
775,815	0,1
776,212	0,1
776,608	0,1
777,005	0,1
777,401	0,1
777,798	0,1
778,194	0,1
778,591	0,1
778,987	0,1
779,383	0,09
779,78	0,1
780,176	0,1
780,572	0,1
780,968	0,09
781,364	0,1
781,76	0,09
782,156	0,1
782,551	0,09
782,947	0,1
783,343	0,1
783,739	0,1
784,134	0,1
784,53	0,1
784,925	0,1
785,321	0,1
785,716	0,09
786,111	0,1
786,507	0,1
786,902	0,09
787,297	0,1
787,692	0,1
788,087	0,1
788,482	0,09
788,877	0,09
789,272	0,09
789,667	0,09
790,061	0,09
790,456	0,09
790,851	0,09
791,245	0,1
791,64	0,1
792,034	0,09
792,429	0,09
792,823	0,09
793,217	0,09
793,612	0,09
794,006	0,09
794,4	0,09
794,794	0,09
795,188	0,09
795,582	0,09
795,976	0,09
796,37	0,09
796,763	0,09
797,157	0,09
797,551	0,09
797,944	0,09
798,338	0,09
798,731	0,09
799,125	0,1
799,518	0,09
799,912	0,09
800,305	0,09
800,698	0,09
801,091	0,09
801,484	0,09
801,877	0,09
802,27	0,09
802,663	0,09
803,056	0,09
803,449	0,09
803,842	0,09
804,235	0,09
804,627	0,09
805,02	0,09
805,412	0,1
805,805	0,09
806,197	0,09
806,59	0,1
806,982	0,09
807,374	0,09
807,766	0,09
808,159	0,09
808,551	0,09
808,943	0,09
809,335	0,09
809,727	0,09
810,118	0,09
810,51	0,09
810,902	0,09
811,294	0,09
811,685	0,09
812,077	0,09
812,468	0,09
812,86	0,09
813,251	0,09
813,643	0,09
814,034	0,09
814,425	0,09
814,816	0,09
815,207	0,09
815,598	0,09
815,989	0,09
816,38	0,09
816,771	0,09
817,162	0,09
817,553	0,09
817,944	0,09
818,334	0,09
818,725	0,09
819,115	0,09
819,506	0,09
819,896	0,09
820,287	0,09
820,677	0,09
821,067	0,09
821,457	0,09
821,848	0,09
822,238	0,09
822,628	0,09
823,018	0,09
823,408	0,09
823,797	0,09
824,187	0,09
824,577	0,09
824,967	0,09
825,356	0,09
825,746	0,09
826,135	0,09
826,525	0,09
826,914	0,09
827,304	0,09
827,693	0,09
828,082	0,09
828,471	0,09
828,86	0,09
829,249	0,09
829,638	0,09
830,027	0,09
830,416	0,09
830,805	0,09
831,194	0,09
831,582	0,09
831,971	0,09
832,36	0,09
832,748	0,09
833,137	0,09
833,525	0,09
833,914	0,09
834,302	0,09
834,69	0,09
835,078	0,09
835,466	0,09
835,854	0,09
836,243	0,09
836,63	0,09
837,018	0,09
837,406	0,09
837,794	0,09
838,182	0,09
838,569	0,09
838,957	0,09
839,345	0,09
839,732	0,09
840,12	0,09
840,507	0,09
840,894	0,09
841,282	0,09
841,669	0,09
842,056	0,09
842,443	0,09
842,83	0,09
843,217	0,08
843,604	0,09
843,991	0,09
844,378	0,08
844,764	0,09
845,151	0,09
845,538	0,09
845,924	0,09
846,311	0,09
846,697	0,09
847,084	0,09
847,47	0,09
847,856	0,09
848,242	0,08
848,629	0,08
849,015	0,08
849,401	0,08
849,787	0,08
850,173	0,08
850,559	0,09
850,944	0,08
851,33	0,08
851,716	0,09
852,102	0,08
852,487	0,08
852,873	0,09
853,258	0,08
853,644	0,08
854,029	0,08
854,414	0,08
854,799	0,08
855,185	0,09
855,57	0,08
855,955	0,09
856,34	0,08
856,725	0,08
857,11	0,08
857,495	0,08
857,879	0,09
858,264	0,08
858,649	0,08
859,033	0,08
859,418	0,09
859,802	0,08
860,187	0,08
860,571	0,09
860,955	0,08
861,34	0,08
861,724	0,09
862,108	0,08
862,492	0,09
862,876	0,08
863,26	0,08
863,644	0,08
864,028	0,08
864,412	0,08
864,795	0,09
865,179	0,08
865,563	0,08
865,946	0,08
866,33	0,08
866,713	0,08
867,097	0,08
867,48	0,08
867,863	0,09
868,246	0,09
868,629	0,08
869,013	0,08
869,396	0,08
869,779	0,08
870,161	0,08
870,544	0,08
870,927	0,08
871,31	0,08
871,693	0,08
872,075	0,09
872,458	0,08
872,84	0,08
873,223	0,08
873,605	0,08
873,987	0,08
874,37	0,08
874,752	0,08
875,134	0,08
875,516	0,09
875,898	0,08
876,28	0,08
876,662	0,08
877,044	0,08
877,426	0,08
877,807	0,08
878,189	0,08
878,571	0,08
878,952	0,08
879,334	0,08
879,715	0,08
880,097	0,08
880,478	0,09
880,859	0,08
881,24	0,08
881,622	0,08
882,003	0,09
882,384	0,08
882,765	0,08
883,146	0,08
883,526	0,08
883,907	0,09
884,288	0,09
884,669	0,09
885,049	0,09
885,43	0,09
885,81	0,08
886,191	0,08
886,571	0,09
886,952	0,1
887,332	0,08
887,712	0,09
888,092	0,09
888,472	0,09
888,852	0,09
889,232	0,08
889,612	0,09
889,992	0,09
890,372	0,08
890,752	0,09
891,131	0,09
891,511	0,09
891,89	0,09
892,27	0,09
892,649	0,09
893,029	0,09
893,408	0,09
893,787	0,09
894,167	0,09
894,546	0,09
894,925	0,09
895,304	0,09
895,683	0,09
896,062	0,09
896,441	0,09
896,819	0,09
897,198	0,08
897,577	0,09
897,955	0,09
898,334	0,09
898,712	0,09
899,091	0,09
899,469	0,09
899,848	0,09
900,226	0,09
900,604	0,1
900,982	0,09
901,36	0,1
901,738	0,1
902,116	0,09
902,494	0,1
902,872	0,09
903,25	0,09
903,628	0,09
904,005	0,09
904,383	0,1
904,76	0,1
905,138	0,1
905,515	0,1
905,893	0,09
906,27	0,1
906,647	0,1
907,024	0,09
907,402	0,11
907,779	0,1
908,156	0,11
908,533	0,1
908,91	0,1
909,286	0,11
909,663	0,1
910,04	0,1
910,417	0,1
910,793	0,11
911,17	0,12
911,546	0,1
911,923	0,1
912,299	0,11
912,675	0,11
913,051	0,11
913,428	0,11
913,804	0,11
914,18	0,11
914,556	0,1
914,932	0,11
915,308	0,1
915,683	0,11
916,059	0,11
916,435	0,12
916,811	0,11
917,186	0,11
917,562	0,11
917,937	0,11
918,313	0,11
918,688	0,11
919,063	0,11
919,438	0,12
919,814	0,1
920,189	0,12
920,564	0,12
920,939	0,12
921,314	0,11
921,689	0,12
922,063	0,11
922,438	0,11
922,813	0,11
923,187	0,11
923,562	0,12
923,936	0,12
924,311	0,1
924,685	0,12
925,06	0,12
925,434	0,12
925,808	0,12
926,182	0,12
926,556	0,11
926,93	0,11
927,304	0,12
927,678	0,13
928,052	0,12
928,426	0,12
928,8	0,13
929,173	0,12
929,547	0,12
929,92	0,12
930,294	0,13
930,667	0,13
931,041	0,12
931,414	0,12
931,787	0,13
932,161	0,12
932,534	0,13
932,907	0,12
933,28	0,12
933,653	0,13
934,026	0,13
934,398	0,12
934,771	0,13
935,144	0,13
935,517	0,13
935,889	0,13
936,262	0,12
936,634	0,12
937,007	0,13
937,379	0,13
937,751	0,12
938,123	0,12
938,496	0,12
938,868	0,13
939,24	0,13
939,612	0,13
939,984	0,13
940,355	0,12
940,727	0,12
941,099	0,14
941,471	0,13
941,842	0,14
942,214	0,13
942,585	0,13
942,957	0,13
943,328	0,15
943,7	0,13
944,071	0,12
944,442	0,14
944,813	0,14
945,184	0,14
945,555	0,14
945,926	0,14
946,297	0,14
946,668	0,15
947,039	0,13
947,409	0,13
947,78	0,14
948,151	0,14
948,521	0,13
948,892	0,17
949,262	0,15
949,633	0,15
950,003	0,15
950,373	0,14
950,743	0,14
951,113	0,16
951,483	0,13
951,853	0,17
952,223	0,17
952,593	0,16
952,963	0,15
953,333	0,16
953,702	0,14
954,072	0,12
954,442	0,14
954,811	0,15
955,181	0,15
955,55	0,15
955,919	0,16
956,289	0,14
956,658	0,14
957,027	0,14
957,396	0,16
957,765	0,17
958,134	0,12
958,503	0,17
958,872	0,14
959,24	0,11
959,609	0,14
959,978	0,16
960,346	0,17
960,715	0,14
961,083	0,17
961,452	0,14
961,82	0,15
962,188	0,16
962,557	0,16
962,925	0,14
963,293	0,18
963,661	0,15
964,029	0,17
964,397	0,17
964,765	0,14
965,133	0,14
965,5	0,14
965,868	0,13
966,236	0,16
966,603	0,11
966,971	0,17
967,338	0,17
967,706	0,13
968,073	0,15
968,44	0,15
968,807	0,17
969,174	0,14
969,542	0,14
969,909	0,14
970,275	0,18
970,642	0,14
971,009	0,18
971,376	0,16
971,743	0,16
972,109	0,15
972,476	0,12
972,842	0,08
973,209	0,11
973,575	0,15
973,942	0,18
974,308	0,15
974,674	0,18
975,04	0,19
975,406	0,12
975,772	0,13
976,138	0,17
976,504	0,12
976,87	0,1
977,236	0,13
977,602	0,12
977,967	0,12
978,333	0,12
978,698	0,13
979,064	0,18
979,429	0,07
979,795	0,17
980,16	0,13
980,525	0,11
980,89	0,11
981,255	0,17
981,621	0,18
981,986	0,18
982,35	0,16
982,715	0,15
983,08	0,13
983,445	0,12
983,81	0,15
984,174	0,12
984,539	0,09
984,903	0,18
985,268	0,15
985,632	0,1
985,996	0,14
986,361	0,1
986,725	0,13
987,089	0,12
987,453	0,18
987,817	0,13
988,181	0,15
988,545	0,08
988,909	0,15
989,272	0,15
989,636	0,16
990	0,12
990,363	0,15
990,727	0,17
991,09	0,09
991,454	0,19
991,817	0,11
992,18	0,08
992,543	0,08
992,907	0,09
993,27	0,08
993,633	0,16
993,996	0,16
994,359	0,17
994,721	0,08
995,084	0,09
995,447	0,07
995,81	0,19
996,172	0,12
996,535	0,22
996,897	0,18
997,259	0,08
997,622	0,13
997,984	0,18
998,346	0,16
998,708	0,08
999,071	0,15
999,433	0,14
999,795	0,11
1000,156	0,03
1000,518	0,1
1000,88	0,1
1001,242	0,15
1001,603	0,11
1001,965	0,12
1002,327	0,12
1002,688	0,18
1003,049	0,05
1003,411	0,05
1003,772	0,06
1004,133	0,02
1004,495	0,21
1004,856	0,18
1005,217	0,14
1005,578	0,05
1005,939	0,12
1006,299	0,02
1006,66	0,13
1007,021	0,11
1007,382	0,12
1007,742	0,09
1008,103	0,11
1008,463	0,06
1008,824	0,09
1009,184	0,14
1009,544	0,17
1009,904	0,16
1010,265	0,12
1010,625	0,17
1010,985	0,2
1011,345	0,07
1011,705	0,12
1012,065	0,15
1012,424	0,09
1012,784	0,15
1013,144	0,08
1013,503	0,06
1013,863	0,09
1014,222	0,11
1014,582	0,11
1014,941	0,17
1015,3	0,15
1015,66	0,09
1016,019	0,05
1016,378	0,16
1016,737	0,04
1017,096	0,09
1017,455	0,13
1017,814	0,13
1018,173	0,12
1018,531	0,12
1018,89	0,22
1019,249	0,06
1019,607	0,06
1019,966	0,19
1020,324	0,1
1020,682	0,2
1021,041	0,11
1021,399	0,1
1021,757	0,12
1022,115	0,11
1022,473	0,11
1022,831	0,15
1023,189	0,07
1023,547	0,04
1023,905	0,04
1024,263	0,11
1024,62	0,14
1024,978	0,07
1025,335	0,08
1025,693	0,09
1026,05	0,16
1026,408	0,14
1026,765	0,09
1027,122	0,13
1027,479	0,06
1027,837	0,17
1028,194	0,08
1028,551	0,12
1028,908	0,06
1029,264	0,07
1029,621	0,06
1029,978	0,09
1030,335	0,15
1030,691	0,1
1031,048	0,12
1031,404	0,09
1031,761	0,13
1032,117	0,13
1032,473	0,14
1032,83	0,07
1033,186	0,17
1033,542	0,09
1033,898	0,04
1034,254	0,05
1034,61	0,05
1034,966	0,05
