Tid	Kanal A	Kanal B
(ms)	(V)	(V)

0.00000000	5.19685000	5.66929100
0.01224000	5.19685000	5.66929100
0.02448000	5.11811000	5.66929100
0.03672000	5.03937000	5.66929100
0.04896000	5.03937000	5.51181100
0.06120000	4.96063000	5.51181100
0.07344000	4.88189000	5.51181100
0.08568000	4.80315000	5.51181100
0.09792000	4.72441000	5.51181100
0.11016000	4.64566900	5.51181100
0.12240000	4.64566900	5.51181100
0.13464000	4.56692900	5.51181100
0.14688000	4.48818900	5.51181100
0.15912000	4.40944900	5.51181100
0.17136000	4.33070900	5.51181100
0.18360000	4.25196800	5.51181100
0.19584000	4.25196800	5.51181100
0.20807999	4.17322800	5.51181100
0.22031999	4.09448800	5.51181100
0.23255999	4.01574800	5.51181100
0.24479999	3.93700800	5.51181100
0.25703999	3.93700800	5.51181100
0.26927999	3.85826800	5.35433100
0.28151999	3.77952800	5.35433100
0.29375999	3.70078700	5.35433100
0.30599999	3.62204700	5.35433100
0.31823999	3.62204700	5.35433100
0.33047999	3.54330700	5.35433100
0.34271999	3.46456700	5.35433100
0.35495999	3.38582700	5.35433100
0.36719999	3.38582700	5.35433100
0.37943999	3.30708700	5.35433100
0.39167999	3.22834600	5.35433100
0.40391999	3.14960600	5.35433100
0.41615999	3.14960600	5.35433100
0.42839999	3.07086600	5.35433100
0.44063999	2.99212600	5.35433100
0.45287999	2.91338600	5.35433100
0.46511999	2.91338600	5.35433100
0.47735999	2.83464600	5.35433100
0.48959999	2.75590500	5.19685000
0.50183999	2.67716500	5.35433100
0.51407999	2.67716500	5.35433100
0.52631999	2.59842500	5.35433100
0.53855999	2.51968500	5.19685000
0.55079999	2.51968500	5.35433100
0.56303999	2.44094500	5.19685000
0.57527999	2.36220500	5.19685000
0.58751999	2.36220500	5.19685000
0.59975999	2.28346500	5.19685000
0.61199999	2.28346500	5.19685000
0.62423998	2.20472400	5.19685000
0.63647998	2.12598400	5.19685000
0.64871998	2.12598400	5.19685000
0.66095998	2.04724400	5.19685000
0.67319998	2.04724400	5.19685000
0.68543998	1.96850400	5.19685000
0.69767998	1.96850400	5.19685000
0.70991998	1.88976400	5.19685000
0.72215998	1.88976400	5.19685000
0.73439998	1.81102400	5.19685000
0.74663998	1.81102400	5.19685000
0.75887998	1.73228300	5.03937000
0.77111998	1.73228300	5.19685000
0.78335998	1.65354300	5.03937000
0.79559998	1.65354300	5.03937000
0.80783998	1.65354300	5.03937000
0.82007998	1.57480300	5.03937000
0.83231998	1.57480300	5.03937000
0.84455998	1.49606300	5.03937000
0.85679998	1.49606300	5.03937000
0.86903998	1.49606300	5.03937000
0.88127998	1.41732300	5.03937000
0.89351998	1.49606300	5.03937000
0.90575998	1.41732300	5.03937000
0.91799998	1.41732300	5.03937000
0.93023998	1.33858300	5.03937000
0.94247998	1.33858300	5.03937000
0.95471998	1.33858300	5.03937000
0.96695998	1.33858300	5.03937000
0.97919998	1.33858300	5.03937000
0.99143998	1.33858300	5.03937000
1.00367998	1.33858300	5.03937000
1.01591998	1.25984300	5.03937000
1.02815998	1.25984300	4.88189000
1.04039997	1.25984300	4.88189000
1.05263997	1.25984300	4.88189000
1.06487997	1.25984300	4.88189000
1.07711997	1.25984300	4.88189000
1.08935997	1.25984300	4.88189000
1.10159997	1.25984300	4.88189000
1.11383997	1.25984300	4.88189000
1.12607997	1.25984300	4.88189000
1.13831997	1.25984300	4.88189000
1.15055997	1.25984300	4.88189000
1.16279997	1.25984300	4.88189000
1.17503997	1.25984300	4.88189000
1.18727997	1.25984300	4.88189000
1.19951997	1.25984300	4.88189000
1.21175997	1.33858300	4.88189000
1.22399997	1.33858300	4.88189000
1.23623997	1.33858300	4.88189000
1.24847997	1.33858300	4.72441000
1.26071997	1.33858300	4.88189000
1.27295997	1.41732300	4.72441000
1.28519997	1.41732300	4.72441000
1.29743997	1.41732300	4.72441000
1.30967997	1.41732300	4.72441000
1.32191997	1.41732300	4.72441000
1.33415997	1.49606300	4.72441000
1.34639997	1.49606300	4.72441000
1.35863997	1.49606300	4.72441000
1.37087997	1.57480300	4.72441000
1.38311997	1.57480300	4.72441000
1.39535997	1.57480300	4.72441000
1.40759997	1.65354300	4.72441000
1.41983997	1.65354300	4.72441000
1.43207997	1.65354300	4.72441000
1.44431997	1.73228300	4.72441000
1.45655996	1.73228300	4.72441000
1.46879996	1.73228300	4.72441000
1.48103996	1.81102400	4.72441000
1.49327996	1.81102400	4.72441000
1.50551996	1.88976400	4.72441000
1.51775996	1.88976400	4.72441000
1.52999996	1.96850400	4.56692900
1.54223996	1.96850400	4.56692900
1.55447996	2.04724400	4.56692900
1.56671996	2.04724400	4.56692900
1.57895996	2.12598400	4.56692900
1.59119996	2.12598400	4.56692900
1.60343996	2.20472400	4.56692900
1.61567996	2.20472400	4.56692900
1.62791996	2.28346500	4.56692900
1.64015996	2.28346500	4.56692900
1.65239996	2.36220500	4.56692900
1.66463996	2.44094500	4.56692900
1.67687996	2.44094500	4.56692900
1.68911996	2.51968500	4.56692900
1.70135996	2.51968500	4.56692900
1.71359996	2.59842500	4.56692900
1.72583996	2.67716500	4.56692900
1.73807996	2.67716500	4.56692900
1.75031996	2.75590500	4.56692900
1.76255996	2.83464600	4.56692900
1.77479996	2.83464600	4.56692900
1.78703996	2.91338600	4.40944900
1.79927996	2.99212600	4.40944900
1.81151996	2.99212600	4.40944900
1.82375996	3.07086600	4.40944900
1.83599996	3.14960600	4.40944900
1.84823996	3.14960600	4.40944900
1.86047996	3.22834600	4.40944900
1.87271995	3.30708700	4.40944900
1.88495995	3.30708700	4.40944900
1.89719995	3.38582700	4.40944900
1.90943995	3.46456700	4.40944900
1.92167995	3.46456700	4.40944900
1.93391995	3.54330700	4.40944900
1.94615995	3.62204700	4.40944900
1.95839995	3.70078700	4.40944900
1.97063995	3.70078700	4.40944900
1.98287995	3.77952800	4.40944900
1.99511995	3.77952800	4.40944900
2.00735995	3.85826800	4.40944900
2.01959995	3.93700800	4.25196800
2.03183995	4.01574800	4.25196800
2.04407995	4.09448800	4.25196800
2.05631995	4.09448800	4.25196800
2.06855995	4.17322800	4.25196800
2.08079995	4.25196800	4.25196800
2.09303995	4.33070900	4.25196800
2.10527995	4.33070900	4.25196800
2.11751995	4.40944900	4.25196800
2.12975995	4.48818900	4.25196800
2.14199995	4.48818900	4.25196800
2.15423995	4.56692900	4.25196800
2.16647995	4.64566900	4.25196800
2.17871995	4.72441000	4.25196800
2.19095995	4.80315000	4.25196800
2.20319995	4.80315000	4.25196800
2.21543995	4.88189000	4.25196800
2.22767995	4.96063000	4.25196800
2.23991995	4.96063000	4.25196800
2.25215995	5.03937000	4.09448800
2.26439995	5.11811000	4.09448800
2.27663995	5.11811000	4.09448800
2.28887994	5.19685000	4.09448800
2.30111994	5.27559000	4.09448800
2.31335994	5.27559000	4.09448800
2.32559994	5.35433100	4.09448800
2.33783994	5.35433100	4.09448800
2.35007994	5.43307100	4.09448800
2.36231994	5.51181100	4.09448800
2.37455994	5.59055100	4.09448800
2.38679994	5.59055100	4.09448800
2.39903994	5.66929100	4.09448800
2.41127994	5.66929100	4.09448800
2.42351994	5.74803200	4.09448800
2.43575994	5.82677200	4.09448800
2.44799994	5.82677200	4.09448800
2.46023994	5.90551200	4.09448800
2.47247994	5.90551200	4.09448800
2.48471994	5.98425200	4.09448800
2.49695994	5.98425200	3.93700800
2.50919994	6.06299200	3.93700800
2.52143994	6.06299200	3.93700800
2.53367994	6.14173200	3.93700800
2.54591994	6.14173200	3.93700800
2.55815994	6.22047200	3.93700800
2.57039994	6.22047200	3.93700800
2.58263994	6.29921200	3.93700800
2.59487994	6.29921200	3.93700800
2.60711994	6.37795300	3.93700800
2.61935994	6.37795300	3.93700800
2.63159994	6.37795300	3.93700800
2.64383994	6.45669300	3.93700800
2.65607994	6.53543300	3.93700800
2.66831994	6.53543300	3.93700800
2.68055994	6.53543300	3.93700800
2.69279994	6.61417300	3.93700800
2.70503993	6.61417300	3.93700800
2.71727993	6.61417300	3.93700800
2.72951993	6.69291400	3.93700800
2.74175993	6.69291400	3.93700800
2.75399993	6.69291400	3.93700800
2.76623993	6.69291400	3.77952800
2.77847993	6.77165400	3.77952800
2.79071993	6.77165400	3.77952800
2.80295993	6.77165400	3.77952800
2.81519993	6.85039400	3.77952800
2.82743993	6.85039400	3.77952800
2.83967993	6.85039400	3.77952800
2.85191993	6.92913400	3.77952800
2.86415993	6.85039400	3.77952800
2.87639993	6.92913400	3.77952800
2.88863993	6.92913400	3.77952800
2.90087993	6.92913400	3.77952800
2.91311993	6.92913400	3.77952800
2.92535993	7.00787400	3.77952800
2.93759993	7.00787400	3.77952800
2.94983993	7.00787400	3.77952800
2.96207993	7.00787400	3.77952800
2.97431993	7.00787400	3.77952800
2.98655993	7.00787400	3.77952800
2.99879993	7.00787400	3.77952800
3.01103993	7.00787400	3.62204700
3.02327993	7.00787400	3.62204700
3.03551993	7.00787400	3.62204700
3.04775993	7.00787400	3.62204700
3.05999993	7.00787400	3.62204700
3.07223993	7.00787400	3.62204700
3.08447993	7.00787400	3.62204700
3.09671993	7.00787400	3.62204700
3.10895993	7.00787400	3.62204700
3.12119992	7.00787400	3.62204700
3.13343992	7.00787400	3.62204700
3.14567992	7.00787400	3.62204700
3.15791992	7.00787400	3.62204700
3.17015992	7.00787400	3.62204700
3.18239992	7.00787400	3.62204700
3.19463992	7.00787400	3.62204700
3.20687992	6.92913400	3.62204700
3.21911992	7.00787400	3.62204700
3.23135992	6.92913400	3.46456700
3.24359992	6.92913400	3.62204700
3.25583992	6.92913400	3.46456700
3.26807992	6.92913400	3.46456700
3.28031992	6.85039400	3.46456700
3.29255992	6.85039400	3.46456700
3.30479992	6.85039400	3.46456700
3.31703992	6.77165400	3.46456700
3.32927992	6.77165400	3.46456700
3.34151992	6.77165400	3.46456700
3.35375992	6.77165400	3.46456700
3.36599992	6.69291400	3.46456700
3.37823992	6.69291400	3.46456700
3.39047992	6.69291400	3.46456700
3.40271992	6.61417300	3.46456700
3.41495992	6.61417300	3.46456700
3.42719992	6.53543300	3.46456700
3.43943992	6.53543300	3.46456700
3.45167992	6.53543300	3.46456700
3.46391992	6.45669300	3.46456700
3.47615992	6.45669300	3.30708700
3.48839992	6.37795300	3.30708700
3.50063992	6.37795300	3.30708700
3.51287992	6.29921200	3.46456700
3.52511992	6.22047200	3.30708700
3.53735991	6.22047200	3.30708700
3.54959991	6.14173200	3.30708700
3.56183991	6.14173200	3.30708700
3.57407991	6.06299200	3.30708700
3.58631991	6.06299200	3.30708700
3.59855991	5.98425200	3.30708700
3.61079991	5.90551200	3.30708700
3.62303991	5.90551200	3.30708700
3.63527991	5.82677200	3.30708700
3.64751991	5.74803200	3.30708700
3.65975991	5.74803200	3.30708700
3.67199991	5.66929100	3.30708700
3.68423991	5.59055100	3.30708700
3.69647991	5.51181100	3.30708700
3.70871991	5.51181100	3.30708700
3.72095991	5.43307100	3.30708700
3.73319991	5.35433100	3.14960600
3.74543991	5.27559000	3.14960600
3.75767991	5.27559000	3.14960600
3.76991991	5.11811000	3.14960600
3.78215991	5.11811000	3.14960600
3.79439991	5.03937000	3.14960600
3.80663991	4.96063000	3.14960600
3.81887991	4.88189000	3.14960600
3.83111991	4.80315000	3.14960600
3.84335991	4.80315000	3.14960600
3.85559991	4.72441000	3.14960600
3.86783991	4.64566900	3.14960600
3.88007991	4.56692900	3.14960600
3.89231991	4.48818900	3.14960600
3.90455991	4.40944900	3.14960600
3.91679991	4.33070900	3.14960600
3.92903991	4.33070900	3.14960600
3.94127991	4.17322800	3.14960600
3.95351990	4.17322800	3.14960600
3.96575990	4.09448800	3.14960600
3.97799990	4.01574800	3.14960600
3.99023990	3.93700800	2.99212600
4.00247990	3.85826800	3.14960600
4.01471990	3.77952800	2.99212600
4.02695990	3.70078700	2.99212600
4.03919990	3.70078700	2.99212600
4.05143990	3.62204700	2.99212600
4.06367990	3.54330700	2.99212600
4.07591990	3.46456700	2.99212600
4.08815990	3.38582700	2.99212600
4.10039990	3.30708700	2.99212600
4.11263990	3.30708700	2.99212600
4.12487990	3.22834600	2.99212600
4.13711990	3.14960600	2.99212600
4.14935990	3.07086600	2.99212600
4.16159990	2.99212600	2.99212600
4.17383990	2.99212600	2.99212600
4.18607990	2.91338600	2.99212600
4.19831990	2.83464600	2.99212600
4.21055990	2.75590500	2.83464600
4.22279990	2.75590500	2.99212600
4.23503990	2.67716500	2.83464600
4.24727990	2.59842500	2.99212600
4.25951990	2.51968500	2.83464600
4.27175990	2.51968500	2.83464600
4.28399990	2.44094500	2.83464600
4.29623990	2.44094500	2.83464600
4.30847990	2.36220500	2.83464600
4.32071990	2.28346500	2.83464600
4.33295990	2.20472400	2.83464600
4.34519990	2.20472400	2.83464600
4.35743990	2.12598400	2.83464600
4.36967989	2.12598400	2.83464600
4.38191989	2.04724400	2.83464600
4.39415989	2.04724400	2.83464600
4.40639989	1.96850400	2.83464600
4.41863989	1.96850400	2.83464600
4.43087989	1.96850400	2.83464600
4.44311989	1.88976400	2.83464600
4.45535989	1.81102400	2.83464600
4.46759989	1.81102400	2.83464600
4.47983989	1.81102400	2.83464600
4.49207989	1.81102400	2.67716500
4.50431989	1.73228300	2.67716500
4.51655989	1.73228300	2.67716500
4.52879989	1.73228300	2.67716500
4.54103989	1.73228300	2.67716500
4.55327989	1.65354300	2.67716500
4.56551989	1.65354300	2.67716500
4.57775989	1.65354300	2.67716500
4.58999989	1.65354300	2.67716500
4.60223989	1.65354300	2.67716500
4.61447989	1.65354300	2.67716500
4.62671989	1.57480300	2.67716500
4.63895989	1.57480300	2.67716500
4.65119989	1.57480300	2.67716500
4.66343989	1.57480300	2.67716500
4.67567989	1.65354300	2.67716500
4.68791989	1.65354300	2.67716500
4.70015989	1.57480300	2.67716500
4.71239989	1.65354300	2.67716500
4.72463989	1.65354300	2.51968500
4.73687989	1.65354300	2.67716500
4.74911989	1.65354300	2.51968500
4.76135989	1.65354300	2.51968500
4.77359989	1.65354300	2.51968500
4.78583988	1.73228300	2.51968500
4.79807988	1.73228300	2.51968500
4.81031988	1.73228300	2.51968500
4.82255988	1.73228300	2.51968500
4.83479988	1.81102400	2.51968500
4.84703988	1.81102400	2.51968500
4.85927988	1.81102400	2.51968500
4.87151988	1.88976400	2.51968500
4.88375988	1.88976400	2.51968500
4.89599988	1.96850400	2.51968500
4.90823988	1.96850400	2.51968500
4.92047988	2.04724400	2.51968500
4.93271988	2.04724400	2.51968500
4.94495988	2.04724400	2.36220500
4.95719988	2.12598400	2.51968500
4.96943988	2.20472400	2.36220500
4.98167988	2.20472400	2.51968500
4.99391988	2.28346500	2.36220500
5.00615988	2.28346500	2.36220500
5.01839988	2.36220500	2.36220500
5.03063988	2.44094500	2.36220500
5.04287988	2.44094500	2.36220500
5.05511988	2.51968500	2.36220500
5.06735988	2.59842500	2.36220500
5.07959988	2.59842500	2.36220500
5.09183988	2.67716500	2.36220500
5.10407988	2.75590500	2.36220500
5.11631988	2.83464600	2.36220500
5.12855988	2.83464600	2.36220500
5.14079988	2.91338600	2.36220500
5.15303988	2.99212600	2.36220500
5.16527988	2.99212600	2.36220500
5.17751988	3.07086600	2.36220500
5.18975988	3.14960600	2.36220500
5.20199987	3.22834600	2.36220500
5.21423987	3.22834600	2.36220500
5.22647987	3.30708700	2.36220500
5.23871987	3.38582700	2.36220500
5.25095987	3.46456700	2.20472400
5.26319987	3.54330700	2.20472400
5.27543987	3.62204700	2.20472400
5.28767987	3.70078700	2.20472400
5.29991987	3.70078700	2.20472400
5.31215987	3.77952800	2.20472400
5.32439987	3.85826800	2.20472400
5.33663987	3.93700800	2.20472400
5.34887987	3.93700800	2.20472400
5.36111987	4.01574800	2.20472400
5.37335987	4.09448800	2.20472400
5.38559987	4.17322800	2.20472400
5.39783987	4.25196800	2.20472400
5.41007987	4.33070900	2.20472400
5.42231987	4.33070900	2.20472400
5.43455987	4.40944900	2.20472400
5.44679987	4.48818900	2.20472400
5.45903987	4.56692900	2.20472400
5.47127987	4.64566900	2.20472400
5.48351987	4.72441000	2.04724400
5.49575987	4.72441000	2.20472400
5.50799987	4.80315000	2.04724400
5.52023987	4.88189000	2.04724400
5.53247987	4.96063000	2.04724400
5.54471987	5.03937000	2.04724400
5.55695987	5.03937000	2.04724400
5.56919987	5.11811000	2.04724400
5.58143987	5.19685000	2.04724400
5.59367987	5.27559000	2.04724400
5.60591987	5.27559000	2.04724400
5.61815986	5.35433100	2.04724400
5.63039986	5.43307100	2.04724400
5.64263986	5.43307100	2.04724400
5.65487986	5.51181100	2.04724400
5.66711986	5.59055100	2.04724400
5.67935986	5.59055100	2.04724400
5.69159986	5.66929100	2.04724400
5.70383986	5.74803200	2.04724400
5.71607986	5.82677200	2.04724400
5.72831986	5.82677200	1.88976400
5.74055986	5.82677200	1.88976400
5.75279986	5.90551200	1.88976400
5.76503986	5.98425200	1.88976400
5.77727986	5.98425200	1.88976400
5.78951986	6.06299200	1.88976400
5.80175986	6.06299200	1.88976400
5.81399986	6.14173200	1.88976400
5.82623986	6.14173200	1.88976400
5.83847986	6.22047200	1.88976400
5.85071986	6.22047200	1.88976400
5.86295986	6.29921200	1.88976400
5.87519986	6.29921200	1.88976400
5.88743986	6.37795300	1.88976400
5.89967986	6.37795300	1.88976400
5.91191986	6.37795300	1.88976400
5.92415986	6.45669300	1.88976400
5.93639986	6.45669300	1.88976400
5.94863986	6.45669300	1.88976400
5.96087986	6.53543300	1.88976400
5.97311986	6.53543300	1.88976400
5.98535986	6.61417300	1.88976400
5.99759986	6.61417300	1.73228300
6.00983986	6.61417300	1.88976400
6.02207986	6.61417300	1.73228300
6.03431985	6.61417300	1.73228300
6.04655985	6.61417300	1.73228300
6.05879985	6.69291400	1.73228300
6.07103985	6.69291400	1.73228300
6.08327985	6.69291400	1.73228300
6.09551985	6.69291400	1.73228300
6.10775985	6.69291400	1.73228300
6.11999985	6.69291400	1.73228300
6.13223985	6.77165400	1.73228300
6.14447985	6.77165400	1.73228300
6.15671985	6.69291400	1.73228300
6.16895985	6.69291400	1.73228300
6.18119985	6.77165400	1.73228300
6.19343985	6.77165400	1.73228300
6.20567985	6.69291400	1.73228300
6.21791985	6.69291400	1.73228300
6.23015985	6.77165400	1.73228300
6.24239985	6.69291400	1.57480300
6.25463985	6.69291400	1.73228300
6.26687985	6.69291400	1.57480300
6.27911985	6.69291400	1.57480300
6.29135985	6.69291400	1.57480300
6.30359985	6.69291400	1.57480300
6.31583985	6.61417300	1.57480300
6.32807985	6.61417300	1.57480300
6.34031985	6.61417300	1.57480300
6.35255985	6.61417300	1.57480300
6.36479985	6.53543300	1.57480300
6.37703985	6.53543300	1.57480300
6.38927985	6.53543300	1.57480300
6.40151985	6.45669300	1.57480300
6.41375985	6.45669300	1.57480300
6.42599985	6.45669300	1.57480300
6.43823985	6.37795300	1.57480300
6.45047984	6.37795300	1.57480300
6.46271984	6.29921200	1.57480300
6.47495984	6.29921200	1.57480300
6.48719984	6.22047200	1.41732300
6.49943984	6.22047200	1.57480300
6.51167984	6.14173200	1.41732300
6.52391984	6.14173200	1.41732300
6.53615984	6.06299200	1.41732300
6.54839984	6.06299200	1.41732300
6.56063984	5.98425200	1.41732300
6.57287984	5.98425200	1.41732300
6.58511984	5.90551200	1.41732300
6.59735984	5.82677200	1.41732300
6.60959984	5.74803200	1.41732300
6.62183984	5.74803200	1.41732300
6.63407984	5.66929100	1.41732300
6.64631984	5.59055100	1.41732300
6.65855984	5.59055100	1.41732300
6.67079984	5.51181100	1.41732300
6.68303984	5.43307100	1.41732300
6.69527984	5.35433100	1.41732300
6.70751984	5.35433100	1.41732300
6.71975984	5.19685000	1.41732300
6.73199984	5.19685000	1.41732300
6.74423984	5.11811000	1.25984300
6.75647984	5.03937000	1.25984300
6.76871984	4.96063000	1.25984300
6.78095984	4.88189000	1.25984300
6.79319984	4.80315000	1.25984300
6.80543984	4.80315000	1.25984300
6.81767984	4.72441000	1.25984300
6.82991984	4.64566900	1.25984300
6.84215984	4.56692900	1.25984300
6.85439983	4.48818900	1.25984300
6.86663983	4.40944900	1.25984300
6.87887983	4.33070900	1.25984300
6.89111983	4.25196800	1.25984300
6.90335983	4.25196800	1.25984300
6.91559983	4.17322800	1.25984300
6.92783983	4.01574800	1.25984300
6.94007983	4.01574800	1.25984300
6.95231983	3.85826800	1.25984300
6.96455983	3.85826800	1.25984300
6.97679983	3.77952800	1.25984300
6.98903983	3.70078700	1.25984300
7.00127983	3.62204700	1.10236200
7.01351983	3.54330700	1.10236200
7.02575983	3.46456700	1.10236200
7.03799983	3.38582700	1.10236200
7.05023983	3.30708700	1.10236200
7.06247983	3.30708700	1.10236200
7.07471983	3.22834600	1.10236200
7.08695983	3.14960600	1.10236200
7.09919983	3.07086600	1.10236200
7.11143983	2.99212600	1.10236200
7.12367983	2.99212600	1.10236200
7.13591983	2.91338600	1.10236200
7.14815983	2.83464600	1.10236200
7.16039983	2.75590500	1.10236200
7.17263983	2.67716500	1.10236200
