Tid	Kanal A	Kanal B
(ms)	(V)	(V)

0.00000000	5.11811000	3.14960600
0.01224000	5.03937000	3.14960600
0.02448000	5.03937000	3.14960600
0.03672000	4.96063000	3.14960600
0.04896000	4.88189000	3.14960600
0.06120000	4.80315000	3.14960600
0.07344000	4.72441000	3.14960600
0.08568000	4.64566900	3.14960600
0.09792000	4.56692900	3.14960600
0.11016000	4.56692900	3.14960600
0.12240000	4.48818900	3.14960600
0.13464000	4.40944900	3.14960600
0.14688000	4.33070900	3.14960600
0.15912000	4.25196800	3.14960600
0.17136000	4.17322800	3.14960600
0.18360000	4.09448800	3.14960600
0.19584000	4.09448800	3.14960600
0.20807999	4.01574800	2.99212600
0.22031999	3.93700800	2.99212600
0.23255999	3.85826800	2.99212600
0.24479999	3.77952800	2.99212600
0.25703999	3.70078700	2.99212600
0.26927999	3.62204700	2.99212600
0.28151999	3.62204700	2.99212600
0.29375999	3.54330700	2.99212600
0.30599999	3.46456700	2.99212600
0.31823999	3.38582700	2.99212600
0.33047999	3.30708700	2.99212600
0.34271999	3.30708700	2.99212600
0.35495999	3.14960600	2.99212600
0.36719999	3.14960600	2.99212600
0.37943999	3.07086600	2.99212600
0.39167999	2.99212600	2.99212600
0.40391999	2.91338600	2.99212600
0.41615999	2.91338600	2.99212600
0.42839999	2.83464600	2.83464600
0.44063999	2.75590500	2.99212600
0.45287999	2.67716500	2.83464600
0.46511999	2.59842500	2.83464600
0.47735999	2.59842500	2.83464600
0.48959999	2.51968500	2.83464600
0.50183999	2.51968500	2.83464600
0.51407999	2.44094500	2.83464600
0.52631999	2.36220500	2.83464600
0.53855999	2.36220500	2.83464600
0.55079999	2.28346500	2.83464600
0.56303999	2.20472400	2.83464600
0.57527999	2.20472400	2.83464600
0.58751999	2.12598400	2.83464600
0.59975999	2.12598400	2.83464600
0.61199999	2.04724400	2.83464600
0.62423998	2.04724400	2.83464600
0.63647998	1.96850400	2.83464600
0.64871998	1.96850400	2.83464600
0.66095998	1.96850400	2.83464600
0.67319998	1.88976400	2.83464600
0.68543998	1.81102400	2.67716500
0.69767998	1.81102400	2.67716500
0.70991998	1.81102400	2.67716500
0.72215998	1.73228300	2.67716500
0.73439998	1.73228300	2.67716500
0.74663998	1.73228300	2.67716500
0.75887998	1.73228300	2.67716500
0.77111998	1.65354300	2.67716500
0.78335998	1.65354300	2.67716500
0.79559998	1.65354300	2.67716500
0.80783998	1.65354300	2.67716500
0.82007998	1.57480300	2.67716500
0.83231998	1.57480300	2.67716500
0.84455998	1.57480300	2.67716500
0.85679998	1.57480300	2.67716500
0.86903998	1.57480300	2.67716500
0.88127998	1.57480300	2.67716500
0.89351998	1.57480300	2.67716500
0.90575998	1.57480300	2.67716500
0.91799998	1.57480300	2.51968500
0.93023998	1.57480300	2.67716500
0.94247998	1.57480300	2.51968500
0.95471998	1.57480300	2.67716500
0.96695998	1.57480300	2.51968500
0.97919998	1.57480300	2.51968500
0.99143998	1.57480300	2.51968500
1.00367998	1.57480300	2.51968500
1.01591998	1.65354300	2.51968500
1.02815998	1.65354300	2.51968500
1.04039997	1.65354300	2.51968500
1.05263997	1.65354300	2.51968500
1.06487997	1.73228300	2.51968500
1.07711997	1.73228300	2.51968500
1.08935997	1.73228300	2.51968500
1.10159997	1.73228300	2.51968500
1.11383997	1.73228300	2.51968500
1.12607997	1.81102400	2.51968500
1.13831997	1.81102400	2.51968500
1.15055997	1.88976400	2.51968500
1.16279997	1.88976400	2.51968500
1.17503997	1.96850400	2.51968500
1.18727997	1.96850400	2.36220500
1.19951997	1.96850400	2.36220500
1.21175997	2.04724400	2.36220500
1.22399997	2.04724400	2.36220500
1.23623997	2.12598400	2.36220500
1.24847997	2.12598400	2.36220500
1.26071997	2.20472400	2.36220500
1.27295997	2.20472400	2.36220500
1.28519997	2.28346500	2.36220500
1.29743997	2.28346500	2.36220500
1.30967997	2.36220500	2.36220500
1.32191997	2.36220500	2.36220500
1.33415997	2.44094500	2.36220500
1.34639997	2.44094500	2.36220500
1.35863997	2.51968500	2.36220500
1.37087997	2.59842500	2.36220500
1.38311997	2.59842500	2.36220500
1.39535997	2.67716500	2.36220500
1.40759997	2.75590500	2.36220500
1.41983997	2.75590500	2.36220500
1.43207997	2.83464600	2.20472400
1.44431997	2.91338600	2.36220500
1.45655996	2.91338600	2.20472400
1.46879996	2.99212600	2.20472400
1.48103996	2.99212600	2.20472400
1.49327996	3.07086600	2.20472400
1.50551996	3.14960600	2.20472400
1.51775996	3.22834600	2.20472400
1.52999996	3.30708700	2.20472400
1.54223996	3.30708700	2.20472400
1.55447996	3.38582700	2.20472400
1.56671996	3.46456700	2.20472400
1.57895996	3.54330700	2.20472400
1.59119996	3.62204700	2.20472400
1.60343996	3.62204700	2.20472400
1.61567996	3.70078700	2.20472400
1.62791996	3.77952800	2.20472400
1.64015996	3.85826800	2.20472400
1.65239996	3.85826800	2.20472400
1.66463996	3.93700800	2.20472400
1.67687996	4.01574800	2.20472400
1.68911996	4.09448800	2.20472400
1.70135996	4.09448800	2.04724400
1.71359996	4.17322800	2.04724400
1.72583996	4.25196800	2.04724400
1.73807996	4.33070900	2.04724400
1.75031996	4.40944900	2.04724400
1.76255996	4.40944900	2.04724400
1.77479996	4.48818900	2.04724400
1.78703996	4.56692900	2.04724400
1.79927996	4.64566900	2.04724400
1.81151996	4.72441000	2.04724400
1.82375996	4.72441000	2.04724400
1.83599996	4.80315000	2.04724400
1.84823996	4.88189000	2.04724400
1.86047996	4.96063000	2.04724400
1.87271995	5.03937000	2.04724400
1.88495995	5.03937000	2.04724400
1.89719995	5.11811000	2.04724400
1.90943995	5.11811000	2.04724400
1.92167995	5.19685000	2.04724400
1.93391995	5.27559000	2.04724400
1.94615995	5.35433100	1.88976400
1.95839995	5.43307100	1.88976400
1.97063995	5.43307100	1.88976400
1.98287995	5.51181100	1.88976400
1.99511995	5.59055100	1.88976400
2.00735995	5.59055100	1.88976400
2.01959995	5.66929100	1.88976400
2.03183995	5.66929100	1.88976400
2.04407995	5.74803200	1.88976400
2.05631995	5.82677200	1.88976400
2.06855995	5.82677200	1.88976400
2.08079995	5.90551200	1.88976400
2.09303995	5.98425200	1.88976400
2.10527995	5.98425200	1.88976400
2.11751995	6.06299200	1.88976400
2.12975995	6.06299200	1.88976400
2.14199995	6.14173200	1.88976400
2.15423995	6.14173200	1.88976400
2.16647995	6.22047200	1.88976400
2.17871995	6.22047200	1.88976400
2.19095995	6.29921200	1.73228300
2.20319995	6.29921200	1.73228300
2.21543995	6.29921200	1.73228300
2.22767995	6.37795300	1.73228300
2.23991995	6.37795300	1.73228300
2.25215995	6.45669300	1.73228300
2.26439995	6.45669300	1.73228300
2.27663995	6.45669300	1.73228300
2.28887994	6.53543300	1.73228300
2.30111994	6.53543300	1.73228300
2.31335994	6.53543300	1.73228300
2.32559994	6.53543300	1.73228300
2.33783994	6.53543300	1.73228300
2.35007994	6.61417300	1.73228300
2.36231994	6.61417300	1.73228300
2.37455994	6.61417300	1.73228300
2.38679994	6.61417300	1.73228300
2.39903994	6.61417300	1.73228300
2.41127994	6.61417300	1.73228300
2.42351994	6.61417300	1.73228300
2.43575994	6.69291400	1.73228300
2.44799994	6.69291400	1.57480300
2.46023994	6.69291400	1.57480300
2.47247994	6.69291400	1.57480300
2.48471994	6.69291400	1.57480300
2.49695994	6.61417300	1.57480300
2.50919994	6.69291400	1.57480300
2.52143994	6.61417300	1.57480300
2.53367994	6.69291400	1.57480300
2.54591994	6.61417300	1.57480300
2.55815994	6.61417300	1.57480300
2.57039994	6.61417300	1.57480300
2.58263994	6.61417300	1.57480300
2.59487994	6.61417300	1.57480300
2.60711994	6.61417300	1.57480300
2.61935994	6.53543300	1.57480300
2.63159994	6.53543300	1.57480300
2.64383994	6.53543300	1.57480300
2.65607994	6.45669300	1.57480300
2.66831994	6.45669300	1.57480300
2.68055994	6.45669300	1.57480300
2.69279994	6.45669300	1.57480300
2.70503993	6.37795300	1.41732300
2.71727993	6.37795300	1.41732300
2.72951993	6.29921200	1.41732300
2.74175993	6.29921200	1.41732300
2.75399993	6.29921200	1.41732300
2.76623993	6.22047200	1.41732300
2.77847993	6.14173200	1.41732300
2.79071993	6.14173200	1.41732300
2.80295993	6.14173200	1.41732300
2.81519993	6.06299200	1.41732300
2.82743993	6.06299200	1.41732300
2.83967993	5.98425200	1.41732300
2.85191993	5.90551200	1.41732300
2.86415993	5.90551200	1.41732300
2.87639993	5.82677200	1.41732300
2.88863993	5.74803200	1.41732300
2.90087993	5.66929100	1.41732300
2.91311993	5.66929100	1.41732300
2.92535993	5.59055100	1.25984300
2.93759993	5.59055100	1.41732300
2.94983993	5.51181100	1.25984300
2.96207993	5.43307100	1.41732300
2.97431993	5.35433100	1.25984300
2.98655993	5.27559000	1.25984300
2.99879993	5.27559000	1.25984300
3.01103993	5.19685000	1.25984300
3.02327993	5.11811000	1.25984300
3.03551993	5.03937000	1.25984300
3.04775993	4.96063000	1.25984300
3.05999993	4.88189000	1.25984300
3.07223993	4.80315000	1.25984300
3.08447993	4.80315000	1.25984300
3.09671993	4.72441000	1.25984300
3.10895993	4.64566900	1.25984300
3.12119992	4.56692900	1.25984300
3.13343992	4.48818900	1.25984300
3.14567992	4.40944900	1.25984300
3.15791992	4.33070900	1.25984300
3.17015992	4.25196800	1.25984300
3.18239992	4.17322800	1.25984300
3.19463992	4.09448800	1.10236200
3.20687992	4.09448800	1.25984300
3.21911992	4.01574800	1.10236200
3.23135992	3.93700800	1.10236200
3.24359992	3.85826800	1.10236200
3.25583992	3.77952800	1.10236200
3.26807992	3.70078700	1.10236200
3.28031992	3.62204700	1.10236200
3.29255992	3.54330700	1.10236200
3.30479992	3.46456700	1.10236200
3.31703992	3.46456700	1.10236200
3.32927992	3.38582700	1.10236200
3.34151992	3.30708700	1.10236200
3.35375992	3.22834600	1.10236200
3.36599992	3.14960600	1.10236200
3.37823992	3.14960600	1.10236200
3.39047992	3.07086600	1.10236200
3.40271992	2.99212600	1.10236200
3.41495992	2.91338600	1.10236200
3.42719992	2.83464600	1.10236200
3.43943992	2.83464600	1.10236200
3.45167992	2.75590500	0.94488190
3.46391992	2.67716500	0.94488190
3.47615992	2.67716500	0.94488190
3.48839992	2.59842500	0.94488190
3.50063992	2.51968500	0.94488190
3.51287992	2.44094500	0.94488190
3.52511992	2.44094500	0.94488190
3.53735991	2.36220500	0.94488190
3.54959991	2.36220500	0.94488190
3.56183991	2.28346500	0.94488190
3.57407991	2.28346500	0.94488190
3.58631991	2.20472400	0.94488190
3.59855991	2.20472400	0.94488190
3.61079991	2.12598400	0.94488190
3.62303991	2.04724400	0.94488190
3.63527991	2.04724400	0.94488190
3.64751991	2.04724400	0.94488190
3.65975991	1.96850400	0.94488190
3.67199991	1.96850400	0.94488190
3.68423991	1.96850400	0.94488190
3.69647991	1.88976400	0.94488190
3.70871991	1.88976400	0.78740160
3.72095991	1.88976400	0.94488190
3.73319991	1.88976400	0.78740160
3.74543991	1.88976400	0.78740160
3.75767991	1.88976400	0.78740160
3.76991991	1.88976400	0.78740160
3.78215991	1.81102400	0.78740160
3.79439991	1.81102400	0.78740160
3.80663991	1.88976400	0.78740160
3.81887991	1.81102400	0.78740160
3.83111991	1.88976400	0.78740160
3.84335991	1.88976400	0.78740160
3.85559991	1.88976400	0.78740160
3.86783991	1.88976400	0.78740160
3.88007991	1.88976400	0.78740160
3.89231991	1.88976400	0.78740160
3.90455991	1.88976400	0.78740160
3.91679991	1.96850400	0.78740160
3.92903991	1.96850400	0.78740160
3.94127991	1.96850400	0.78740160
3.95351990	2.04724400	0.62992130
3.96575990	2.04724400	0.62992130
3.97799990	2.12598400	0.62992130
3.99023990	2.12598400	0.62992130
4.00247990	2.12598400	0.62992130
4.01471990	2.20472400	0.62992130
4.02695990	2.20472400	0.62992130
4.03919990	2.28346500	0.62992130
4.05143990	2.28346500	0.62992130
4.06367990	2.36220500	0.62992130
4.07591990	2.44094500	0.62992130
4.08815990	2.44094500	0.62992130
4.10039990	2.51968500	0.62992130
4.11263990	2.59842500	0.62992130
4.12487990	2.59842500	0.62992130
4.13711990	2.67716500	0.62992130
4.14935990	2.67716500	0.62992130
4.16159990	2.83464600	0.62992130
4.17383990	2.83464600	0.47244100
4.18607990	2.91338600	0.62992130
4.19831990	2.99212600	0.47244100
4.21055990	2.99212600	0.62992130
4.22279990	3.07086600	0.47244100
4.23503990	3.14960600	0.47244100
4.24727990	3.22834600	0.47244100
4.25951990	3.30708700	0.47244100
4.27175990	3.30708700	0.47244100
4.28399990	3.38582700	0.47244100
4.29623990	3.46456700	0.47244100
4.30847990	3.54330700	0.47244100
4.32071990	3.62204700	0.47244100
4.33295990	3.70078700	0.47244100
4.34519990	3.77952800	0.47244100
4.35743990	3.77952800	0.47244100
4.36967989	3.93700800	0.47244100
4.38191989	3.93700800	0.47244100
4.39415989	4.01574800	0.47244100
4.40639989	4.09448800	0.47244100
4.41863989	4.17322800	0.47244100
4.43087989	4.25196800	0.47244100
4.44311989	4.25196800	0.31496060
4.45535989	4.40944900	0.47244100
4.46759989	4.40944900	0.31496060
4.47983989	4.48818900	0.31496060
4.49207989	4.56692900	0.31496060
4.50431989	4.64566900	0.31496060
4.51655989	4.72441000	0.31496060
4.52879989	4.80315000	0.31496060
4.54103989	4.80315000	0.31496060
4.55327989	4.88189000	0.31496060
4.56551989	4.96063000	0.31496060
4.57775989	5.03937000	0.31496060
4.58999989	5.11811000	0.31496060
4.60223989	5.19685000	0.31496060
4.61447989	5.19685000	0.31496060
4.62671989	5.27559000	0.31496060
4.63895989	5.35433100	0.31496060
4.65119989	5.43307100	0.31496060
4.66343989	5.43307100	0.31496060
4.67567989	5.51181100	0.31496060
4.68791989	5.59055100	0.15748030
4.70015989	5.59055100	0.31496060
4.71239989	5.66929100	0.15748030
4.72463989	5.74803200	0.15748030
4.73687989	5.74803200	0.15748030
4.74911989	5.82677200	0.15748030
4.76135989	5.82677200	0.15748030
4.77359989	5.90551200	0.15748030
4.78583988	5.98425200	0.15748030
4.79807988	5.98425200	0.15748030
4.81031988	6.06299200	0.15748030
4.82255988	6.06299200	0.15748030
4.83479988	6.14173200	0.15748030
4.84703988	6.14173200	0.15748030
4.85927988	6.22047200	0.15748030
4.87151988	6.22047200	0.15748030
4.88375988	6.22047200	0.15748030
4.89599988	6.29921200	0.15748030
4.90823988	6.29921200	0.15748030
4.92047988	6.37795300	0.15748030
4.93271988	6.37795300	0.15748030
4.94495988	6.45669300	0.15748030
4.95719988	6.45669300	0.15748030
4.96943988	6.45669300	0.15748030
4.98167988	6.45669300	0.15748030
4.99391988	6.53543300	0.15748030
5.00615988	6.53543300	0.15748030
5.01839988	6.53543300	0.15748030
5.03063988	6.61417300	0.31496060
5.04287988	6.61417300	0.31496060
5.05511988	6.61417300	0.31496060
5.06735988	6.61417300	0.31496060
5.07959988	6.69291400	0.31496060
5.09183988	6.69291400	0.31496060
5.10407988	6.69291400	0.31496060
5.11631988	6.77165400	0.31496060
5.12855988	6.77165400	0.31496060
5.14079988	6.77165400	0.31496060
5.15303988	6.77165400	0.31496060
5.16527988	6.85039400	0.31496060
5.17751988	6.85039400	0.31496060
5.18975988	6.85039400	0.31496060
5.20199987	6.85039400	0.31496060
5.21423987	6.92913400	0.31496060
5.22647987	6.92913400	0.31496060
5.23871987	6.92913400	0.31496060
5.25095987	6.92913400	0.31496060
5.26319987	7.00787400	0.47244100
5.27543987	7.00787400	0.31496060
5.28767987	7.00787400	0.47244100
5.29991987	7.00787400	0.31496060
5.31215987	7.08661400	0.47244100
5.32439987	7.08661400	0.47244100
5.33663987	7.08661400	0.47244100
5.34887987	7.16535400	0.47244100
5.36111987	7.16535400	0.47244100
5.37335987	7.16535400	0.47244100
5.38559987	7.16535400	0.47244100
5.39783987	7.16535400	0.47244100
5.41007987	7.24409400	0.47244100
5.42231987	7.24409400	0.47244100
5.43455987	7.24409400	0.47244100
5.44679987	7.24409400	0.47244100
5.45903987	7.24409400	0.47244100
5.47127987	7.24409400	0.47244100
5.48351987	7.32283400	0.47244100
5.49575987	7.32283400	0.47244100
5.50799987	7.32283400	0.62992130
5.52023987	7.32283400	0.62992130
5.53247987	7.40157500	0.62992130
5.54471987	7.32283400	0.62992130
5.55695987	7.40157500	0.62992130
5.56919987	7.40157500	0.62992130
5.58143987	7.40157500	0.62992130
5.59367987	7.40157500	0.62992130
5.60591987	7.40157500	0.62992130
5.61815986	7.48031500	0.62992130
5.63039986	7.48031500	0.62992130
5.64263986	7.48031500	0.62992130
5.65487986	7.48031500	0.62992130
5.66711986	7.48031500	0.62992130
5.67935986	7.48031500	0.62992130
5.69159986	7.48031500	0.62992130
5.70383986	7.55905500	0.62992130
5.71607986	7.55905500	0.62992130
5.72831986	7.55905500	0.62992130
5.74055986	7.55905500	0.62992130
5.75279986	7.55905500	0.78740160
5.76503986	7.55905500	0.62992130
5.77727986	7.55905500	0.78740160
5.78951986	7.63779500	0.78740160
5.80175986	7.55905500	0.78740160
5.81399986	7.55905500	0.78740160
5.82623986	7.63779500	0.78740160
5.83847986	7.63779500	0.78740160
5.85071986	7.63779500	0.78740160
5.86295986	7.63779500	0.78740160
5.87519986	7.63779500	0.78740160
5.88743986	7.63779500	0.78740160
5.89967986	7.63779500	0.78740160
5.91191986	7.63779500	0.78740160
5.92415986	7.63779500	0.78740160
5.93639986	7.63779500	0.78740160
5.94863986	7.63779500	0.78740160
5.96087986	7.63779500	0.78740160
5.97311986	7.63779500	0.78740160
5.98535986	7.63779500	0.78740160
5.99759986	7.63779500	0.94488190
6.00983986	7.63779500	0.78740160
6.02207986	7.63779500	0.94488190
6.03431985	7.63779500	0.94488190
6.04655985	7.63779500	0.94488190
6.05879985	7.63779500	0.94488190
6.07103985	7.63779500	0.94488190
6.08327985	7.63779500	0.94488190
6.09551985	7.63779500	0.94488190
6.10775985	7.63779500	0.94488190
6.11999985	7.63779500	0.94488190
6.13223985	7.55905500	0.94488190
6.14447985	7.55905500	0.94488190
6.15671985	7.55905500	0.94488190
6.16895985	7.55905500	0.94488190
6.18119985	7.55905500	0.94488190
6.19343985	7.55905500	0.94488190
6.20567985	7.55905500	0.94488190
6.21791985	7.48031500	0.94488190
6.23015985	7.48031500	0.94488190
6.24239985	7.48031500	1.10236200
6.25463985	7.48031500	1.10236200
6.26687985	7.48031500	1.10236200
6.27911985	7.48031500	1.10236200
6.29135985	7.40157500	1.10236200
6.30359985	7.40157500	1.10236200
6.31583985	7.40157500	1.10236200
6.32807985	7.40157500	1.10236200
6.34031985	7.32283400	1.10236200
6.35255985	7.32283400	1.10236200
6.36479985	7.32283400	1.10236200
6.37703985	7.32283400	1.10236200
6.38927985	7.24409400	1.10236200
6.40151985	7.24409400	1.10236200
6.41375985	7.24409400	1.10236200
6.42599985	7.16535400	1.10236200
6.43823985	7.16535400	1.10236200
6.45047984	7.16535400	1.10236200
6.46271984	7.16535400	1.10236200
6.47495984	7.08661400	1.10236200
6.48719984	7.08661400	1.25984300
6.49943984	7.00787400	1.25984300
6.51167984	7.00787400	1.25984300
6.52391984	7.00787400	1.25984300
6.53615984	6.92913400	1.25984300
6.54839984	6.85039400	1.25984300
6.56063984	6.85039400	1.25984300
6.57287984	6.77165400	1.25984300
6.58511984	6.77165400	1.25984300
6.59735984	6.69291400	1.25984300
6.60959984	6.69291400	1.25984300
6.62183984	6.61417300	1.25984300
6.63407984	6.61417300	1.25984300
6.64631984	6.53543300	1.25984300
6.65855984	6.45669300	1.25984300
6.67079984	6.45669300	1.25984300
6.68303984	6.37795300	1.25984300
6.69527984	6.37795300	1.25984300
6.70751984	6.29921200	1.25984300
6.71975984	6.22047200	1.25984300
6.73199984	6.22047200	1.41732300
6.74423984	6.14173200	1.41732300
6.75647984	6.06299200	1.41732300
6.76871984	5.98425200	1.41732300
6.78095984	5.98425200	1.41732300
6.79319984	5.90551200	1.41732300
6.80543984	5.82677200	1.41732300
6.81767984	5.74803200	1.41732300
6.82991984	5.66929100	1.41732300
6.84215984	5.66929100	1.41732300
6.85439983	5.59055100	1.41732300
6.86663983	5.51181100	1.41732300
6.87887983	5.43307100	1.41732300
6.89111983	5.35433100	1.41732300
6.90335983	5.27559000	1.41732300
6.91559983	5.27559000	1.41732300
6.92783983	5.19685000	1.41732300
6.94007983	5.11811000	1.41732300
6.95231983	5.03937000	1.41732300
6.96455983	4.96063000	1.41732300
6.97679983	4.88189000	1.57480300
6.98903983	4.88189000	1.57480300
7.00127983	4.80315000	1.57480300
7.01351983	4.72441000	1.57480300
7.02575983	4.64566900	1.57480300
7.03799983	4.56692900	1.57480300
7.05023983	4.48818900	1.57480300
7.06247983	4.40944900	1.57480300
7.07471983	4.33070900	1.57480300
7.08695983	4.25196800	1.57480300
7.09919983	4.17322800	1.57480300
7.11143983	4.09448800	1.57480300
7.12367983	4.01574800	1.57480300
7.13591983	3.93700800	1.57480300
7.14815983	3.93700800	1.57480300
7.16039983	3.77952800	1.57480300
7.17263983	3.77952800	1.57480300
