Tid	Kanal A	Kanal B
(s)	(V)	(V)

0.00000000	4.17322800	2.12598400
0.00006120	4.33070900	2.12598400
0.00012240	4.48818900	2.20472400
0.00018360	4.56692900	2.20472400
0.00024480	4.72441000	2.20472400
0.00030600	4.80315000	2.12598400
0.00036720	4.96063000	2.20472400
0.00042840	5.03937000	2.20472400
0.00048960	5.19685000	2.20472400
0.00055080	5.27559000	2.20472400
0.00061200	5.43307100	2.20472400
0.00067320	5.51181100	2.28346500
0.00073440	5.66929100	2.28346500
0.00079560	5.74803200	2.28346500
0.00085680	5.90551200	2.28346500
0.00091800	5.98425200	2.28346500
0.00097920	6.06299200	2.28346500
0.00104040	6.22047200	2.28346500
0.00110160	6.29921200	2.28346500
0.00116280	6.37795300	2.28346500
0.00122400	6.45669300	2.36220500
0.00128520	6.61417300	2.28346500
0.00134640	6.69291400	2.36220500
0.00140760	6.77165400	2.36220500
0.00146880	6.85039400	2.36220500
0.00153000	6.92913400	2.36220500
0.00159120	7.00787400	2.36220500
0.00165240	7.08661400	2.44094500
0.00171360	7.16535400	2.36220500
0.00177480	7.24409400	2.44094500
0.00183600	7.32283400	2.36220500
0.00189720	7.40157500	2.44094500
0.00195840	7.40157500	2.44094500
0.00201960	7.48031500	2.44094500
0.00208080	7.55905500	2.44094500
0.00214200	7.63779500	2.44094500
0.00220320	7.71653600	2.44094500
0.00226440	7.71653600	2.44094500
0.00232560	7.79527600	2.51968500
0.00238680	7.79527600	2.51968500
0.00244800	7.87401600	2.51968500
0.00250920	7.87401600	2.51968500
0.00257040	7.95275600	2.51968500
0.00263160	7.95275600	2.51968500
0.00269280	8.03149600	2.51968500
0.00275400	8.03149600	2.51968500
0.00281520	8.03149600	2.59842500
0.00287640	8.03149600	2.59842500
0.00293760	8.11023600	2.59842500
0.00299880	8.11023600	2.59842500
0.00306000	8.11023600	2.59842500
0.00312120	8.11023600	2.59842500
0.00318240	8.11023600	2.59842500
0.00324360	8.11023600	2.59842500
0.00330480	8.18897600	2.59842500
0.00336600	8.18897600	2.59842500
0.00342720	8.11023600	2.67716500
0.00348840	8.11023600	2.67716500
0.00354960	8.11023600	2.67716500
0.00361080	8.11023600	2.67716500
0.00367200	8.11023600	2.67716500
0.00373320	8.11023600	2.67716500
0.00379440	8.03149600	2.67716500
0.00385560	8.03149600	2.67716500
0.00391680	8.03149600	2.75590500
0.00397800	7.95275600	2.75590500
0.00403920	7.87401600	2.75590500
0.00410040	7.87401600	2.75590500
0.00416160	7.79527600	2.75590500
0.00422280	7.79527600	2.75590500
0.00428400	7.71653600	2.75590500
0.00434520	7.63779500	2.75590500
0.00440640	7.63779500	2.75590500
0.00446760	7.55905500	2.75590500
0.00452880	7.40157500	2.83464600
0.00459000	7.32283400	2.83464600
0.00465120	7.24409400	2.83464600
0.00471240	7.16535400	2.83464600
0.00477360	7.08661400	2.83464600
0.00483480	6.92913400	2.83464600
0.00489600	6.85039400	2.83464600
0.00495720	6.69291400	2.83464600
0.00501840	6.53543300	2.83464600
0.00507960	6.45669300	2.91338600
0.00514080	6.29921200	2.91338600
0.00520200	6.14173200	2.91338600
0.00526320	5.98425200	2.91338600
0.00532440	5.82677200	2.91338600
0.00538560	5.66929100	2.91338600
0.00544680	5.51181100	2.91338600
0.00550800	5.35433100	2.99212600
0.00556920	5.19685000	2.99212600
0.00563040	5.03937000	2.99212600
0.00569160	4.80315000	2.99212600
0.00575280	4.64566900	2.99212600
0.00581400	4.48818900	2.99212600
0.00587520	4.33070900	2.99212600
0.00593640	4.25196800	2.99212600
0.00599760	4.09448800	2.99212600
0.00605880	3.93700800	2.99212600
0.00612000	3.77952800	3.07086600
0.00618120	3.62204700	3.07086600
0.00624240	3.46456700	3.07086600
0.00630360	3.30708700	3.07086600
0.00636480	3.22834600	3.07086600
0.00642600	3.07086600	3.07086600
0.00648720	2.91338600	3.07086600
0.00654840	2.75590500	3.14960600
0.00660960	2.59842500	3.14960600
0.00667080	2.51968500	3.14960600
0.00673200	2.36220500	3.14960600
0.00679320	2.20472400	3.14960600
0.00685440	2.04724400	3.14960600
0.00691560	1.96850400	3.14960600
0.00697680	1.81102400	3.14960600
0.00703800	1.73228300	3.14960600
0.00709920	1.57480300	3.14960600
0.00716040	1.49606300	3.22834600
0.00722160	1.33858300	3.22834600
0.00728280	1.25984300	3.22834600
0.00734400	1.18110200	3.22834600
0.00740520	1.10236200	3.22834600
0.00746640	1.02362200	3.22834600
0.00752760	0.94488190	3.22834600
0.00758880	0.86614170	3.30708700
0.00765000	0.78740160	3.22834600
0.00771120	0.70866140	3.30708700
0.00777240	0.62992130	3.30708700
0.00783360	0.62992130	3.30708700
0.00789480	0.55118110	3.30708700
0.00795600	0.47244100	3.30708700
0.00801720	0.39370080	3.30708700
0.00807840	0.39370080	3.38582700
0.00813960	0.31496060	3.30708700
0.00820080	0.31496060	3.38582700
0.00826200	0.31496060	3.30708700
0.00832320	0.31496060	3.38582700
0.00838440	0.23622050	3.38582700
0.00844560	0.23622050	3.38582700
0.00850680	0.23622050	3.38582700
0.00856800	0.23622050	3.38582700
0.00862920	0.23622050	3.38582700
0.00869040	0.23622050	3.46456700
0.00875160	0.23622050	3.38582700
0.00881280	0.23622050	3.46456700
0.00887400	0.23622050	3.46456700
0.00893520	0.23622050	3.46456700
0.00899640	0.23622050	3.46456700
0.00905760	0.23622050	3.46456700
0.00911880	0.31496060	3.46456700
0.00918000	0.31496060	3.54330700
0.00924120	0.39370080	3.54330700
0.00930240	0.47244100	3.54330700
0.00936360	0.47244100	3.54330700
0.00942480	0.47244100	3.54330700
0.00948600	0.55118110	3.54330700
0.00954720	0.62992130	3.54330700
0.00960840	0.70866140	3.54330700
0.00966960	0.78740160	3.54330700
0.00973080	0.78740160	3.54330700
0.00979200	0.86614170	3.62204700
0.00985320	0.94488190	3.62204700
0.00991440	1.02362200	3.62204700
0.00997560	1.10236200	3.62204700
0.01003680	1.18110200	3.62204700
0.01009800	1.25984300	3.62204700
0.01015920	1.41732300	3.62204700
0.01022040	1.49606300	3.62204700
0.01028160	1.57480300	3.62204700
0.01034280	1.65354300	3.70078700
0.01040400	1.73228300	3.70078700
0.01046520	1.88976400	3.70078700
0.01052640	1.96850400	3.70078700
0.01058760	2.04724400	3.70078700
0.01064880	2.20472400	3.70078700
0.01071000	2.28346500	3.70078700
0.01077120	2.44094500	3.70078700
0.01083240	2.51968500	3.70078700
0.01089360	2.67716500	3.77952800
0.01095480	2.75590500	3.70078700
0.01101600	2.91338600	3.77952800
0.01107720	2.99212600	3.77952800
0.01113840	3.14960600	3.77952800
0.01119960	3.22834600	3.77952800
0.01126080	3.38582700	3.77952800
0.01132200	3.46456700	3.77952800
0.01138320	3.62204700	3.85826800
0.01144440	3.77952800	3.85826800
0.01150560	3.85826800	3.85826800
0.01156680	4.01574800	3.85826800
0.01162800	4.17322800	3.85826800
0.01168920	4.25196800	3.85826800
0.01175040	4.40944900	3.85826800
0.01181160	4.56692900	3.85826800
0.01187280	4.72441000	3.85826800
0.01193400	4.80315000	3.85826800
0.01199520	4.96063000	3.93700800
0.01205640	5.03937000	3.93700800
0.01211760	5.19685000	3.93700800
0.01217880	5.27559000	3.93700800
0.01224000	5.43307100	3.93700800
0.01230120	5.51181100	3.93700800
0.01236240	5.66929100	3.93700800
0.01242360	5.74803200	3.93700800
0.01248480	5.90551200	4.01574800
0.01254600	5.98425200	4.01574800
0.01260720	6.06299200	4.01574800
0.01266840	6.14173200	4.01574800
0.01272960	6.29921200	4.01574800
0.01279080	6.37795300	4.01574800
0.01285200	6.45669300	4.01574800
0.01291320	6.53543300	4.01574800
0.01297440	6.61417300	4.01574800
0.01303560	6.77165400	4.01574800
0.01309680	6.77165400	4.09448800
0.01315800	6.92913400	4.09448800
0.01321920	6.92913400	4.09448800
0.01328040	7.08661400	4.09448800
0.01334160	7.16535400	4.09448800
0.01340280	7.24409400	4.09448800
0.01346400	7.32283400	4.17322800
0.01352520	7.40157500	4.09448800
0.01358640	7.40157500	4.17322800
0.01364760	7.48031500	4.17322800
0.01370880	7.55905500	4.17322800
0.01377000	7.63779500	4.17322800
0.01383120	7.71653600	4.17322800
0.01389240	7.71653600	4.17322800
0.01395360	7.79527600	4.17322800
0.01401480	7.79527600	4.17322800
0.01407600	7.87401600	4.25196800
0.01413720	7.87401600	4.25196800
0.01419840	7.95275600	4.25196800
0.01425960	7.95275600	4.25196800
0.01432080	8.03149600	4.25196800
0.01438200	8.03149600	4.25196800
0.01444320	8.03149600	4.25196800
0.01450440	8.03149600	4.25196800
0.01456560	8.11023600	4.33070900
0.01462680	8.11023600	4.25196800
0.01468800	8.11023600	4.33070900
0.01474920	8.11023600	4.33070900
0.01481040	8.18897600	4.33070900
0.01487160	8.18897600	4.33070900
0.01493280	8.18897600	4.33070900
0.01499400	8.18897600	4.33070900
0.01505520	8.18897600	4.40944900
0.01511640	8.18897600	4.40944900
0.01517760	8.18897600	4.40944900
0.01523880	8.18897600	4.40944900
0.01530000	8.11023600	4.40944900
0.01536120	8.11023600	4.40944900
0.01542240	8.11023600	4.40944900
0.01548360	8.11023600	4.40944900
0.01554480	8.03149600	4.40944900
0.01560600	8.03149600	4.40944900
0.01566720	7.95275600	4.48818900
0.01572840	7.95275600	4.40944900
0.01578960	7.87401600	4.48818900
0.01585080	7.79527600	4.48818900
0.01591200	7.79527600	4.48818900
0.01597320	7.71653600	4.48818900
0.01603440	7.63779500	4.56692900
0.01609560	7.55905500	4.48818900
0.01615680	7.48031500	4.48818900
0.01621800	7.48031500	4.48818900
0.01627920	7.40157500	4.56692900
0.01634040	7.24409400	4.56692900
0.01640160	7.24409400	4.56692900
0.01646280	7.16535400	4.56692900
0.01652400	7.08661400	4.56692900
0.01658520	6.92913400	4.56692900
0.01664640	6.85039400	4.56692900
0.01670760	6.77165400	4.56692900
0.01676880	6.61417300	4.64566900
0.01683000	6.53543300	4.64566900
0.01689120	6.45669300	4.64566900
0.01695240	6.29921200	4.64566900
0.01701360	6.14173200	4.64566900
0.01707480	6.06299200	4.64566900
0.01713600	5.90551200	4.72441000
0.01719720	5.82677200	4.64566900
0.01725840	5.66929100	4.64566900
0.01731960	5.51181100	4.72441000
0.01738080	5.43307100	4.72441000
0.01744200	5.27559000	4.72441000
0.01750320	5.11811000	4.72441000
0.01756440	4.96063000	4.72441000
0.01762560	4.80315000	4.72441000
0.01768680	4.72441000	4.72441000
0.01774800	4.56692900	4.80315000
0.01780920	4.40944900	4.72441000
0.01787040	4.25196800	4.72441000
0.01793160	4.17322800	4.80315000
0.01799280	4.01574800	4.80315000
0.01805400	3.85826800	4.80315000
0.01811520	3.77952800	4.80315000
0.01817640	3.62204700	4.80315000
0.01823760	3.46456700	4.88189000
0.01829880	3.30708700	4.80315000
0.01836000	3.22834600	4.88189000
0.01842120	3.07086600	4.88189000
0.01848240	2.99212600	4.88189000
0.01854360	2.83464600	4.88189000
0.01860480	2.67716500	4.88189000
0.01866600	2.59842500	4.88189000
0.01872720	2.44094500	4.88189000
0.01878840	2.36220500	4.88189000
0.01884960	2.20472400	4.88189000
0.01891080	2.04724400	4.96063000
0.01897200	1.96850400	4.96063000
0.01903320	1.81102400	4.96063000
0.01909440	1.73228300	4.96063000
0.01915560	1.65354300	4.96063000
0.01921680	1.49606300	4.96063000
0.01927800	1.41732300	4.96063000
0.01933920	1.25984300	5.03937000
0.01940040	1.18110200	4.96063000
0.01946160	1.10236200	5.03937000
0.01952280	1.02362200	5.03937000
0.01958400	0.94488190	5.03937000
0.01964520	0.86614170	5.03937000
0.01970640	0.78740160	5.03937000
0.01976760	0.70866140	5.03937000
0.01982880	0.62992130	5.03937000
0.01989000	0.55118110	5.03937000
0.01995120	0.55118110	5.11811000
0.02001240	0.47244100	5.11811000
0.02007360	0.39370080	5.11811000
0.02013480	0.39370080	5.11811000
0.02019600	0.31496060	5.11811000
0.02025720	0.31496060	5.11811000
0.02031840	0.31496060	5.11811000
0.02037960	0.23622050	5.11811000
0.02044080	0.23622050	5.19685000
0.02050200	0.23622050	5.19685000
0.02056320	0.23622050	5.19685000
0.02062440	0.23622050	5.19685000
0.02068560	0.23622050	5.19685000
0.02074680	0.23622050	5.19685000
0.02080800	0.23622050	5.19685000
0.02086920	0.31496060	5.19685000
0.02093040	0.31496060	5.19685000
0.02099160	0.39370080	5.27559000
0.02105280	0.39370080	5.27559000
0.02111400	0.39370080	5.19685000
0.02117520	0.47244100	5.27559000
0.02123640	0.55118110	5.27559000
0.02129760	0.55118110	5.27559000
0.02135880	0.62992130	5.27559000
0.02142000	0.70866140	5.27559000
0.02148120	0.78740160	5.27559000
0.02154240	0.78740160	5.35433100
0.02160360	0.86614170	5.35433100
0.02166480	0.94488190	5.35433100
0.02172600	1.02362200	5.35433100
0.02178720	1.10236200	5.35433100
0.02184840	1.18110200	5.35433100
0.02190960	1.25984300	5.35433100
0.02197080	1.33858300	5.35433100
0.02203200	1.41732300	5.43307100
0.02209320	1.49606300	5.43307100
0.02215440	1.65354300	5.43307100
0.02221560	1.73228300	5.43307100
0.02227680	1.81102400	5.43307100
0.02233800	1.88976400	5.43307100
0.02239920	1.96850400	5.43307100
0.02246040	2.04724400	5.43307100
0.02252160	2.20472400	5.51181100
0.02258280	2.28346500	5.43307100
0.02264400	2.44094500	5.51181100
0.02270520	2.51968500	5.51181100
0.02276640	2.67716500	5.51181100
0.02282760	2.75590500	5.51181100
0.02288880	2.91338600	5.51181100
0.02295000	2.99212600	5.51181100
0.02301120	3.14960600	5.51181100
0.02307240	3.22834600	5.51181100
0.02313360	3.38582700	5.59055100
0.02319480	3.46456700	5.51181100
0.02325600	3.62204700	5.59055100
0.02331720	3.70078700	5.59055100
0.02337840	3.85826800	5.59055100
0.02343960	3.93700800	5.59055100
0.02350080	4.09448800	5.59055100
0.02356200	4.17322800	5.59055100
0.02362320	4.25196800	5.66929100
0.02368440	4.40944900	5.66929100
0.02374560	4.56692900	5.66929100
0.02380680	4.64566900	5.59055100
0.02386800	4.72441000	5.66929100
0.02392920	4.88189000	5.66929100
0.02399040	5.03937000	5.66929100
0.02405160	5.11811000	5.66929100
0.02411280	5.27559000	5.66929100
0.02417400	5.35433100	5.66929100
0.02423520	5.51181100	5.66929100
0.02429640	5.59055100	5.74803200
0.02435760	5.74803200	5.74803200
0.02441880	5.82677200	5.74803200
0.02448000	5.98425200	5.74803200
0.02454120	6.06299200	5.74803200
0.02460240	6.22047200	5.74803200
0.02466360	6.29921200	5.74803200
0.02472480	6.37795300	5.74803200
0.02478600	6.45669300	5.74803200
0.02484720	6.61417300	5.82677200
0.02490840	6.69291400	5.82677200
0.02496960	6.77165400	5.82677200
0.02503080	6.85039400	5.82677200
0.02509200	6.92913400	5.82677200
0.02515320	7.00787400	5.82677200
0.02521440	7.08661400	5.82677200
0.02527560	7.16535400	5.82677200
0.02533680	7.24409400	5.90551200
0.02539800	7.24409400	5.82677200
0.02545920	7.32283400	5.90551200
0.02552040	7.40157500	5.90551200
0.02558160	7.48031500	5.90551200
0.02564280	7.55905500	5.90551200
0.02570400	7.63779500	5.90551200
0.02576520	7.63779500	5.90551200
0.02582640	7.71653600	5.98425200
0.02588760	7.71653600	5.98425200
0.02594880	7.79527600	5.98425200
0.02601000	7.79527600	5.98425200
0.02607120	7.87401600	5.98425200
0.02613240	7.87401600	5.98425200
0.02619360	7.95275600	5.98425200
0.02625480	7.95275600	5.98425200
0.02631600	8.03149600	5.98425200
0.02637720	8.03149600	6.06299200
0.02643840	8.03149600	5.98425200
0.02649960	8.11023600	6.06299200
0.02656080	8.11023600	6.06299200
0.02662200	8.18897600	6.06299200
0.02668320	8.11023600	6.06299200
0.02674440	8.18897600	6.06299200
0.02680560	8.18897600	6.06299200
0.02686680	8.18897600	6.06299200
0.02692800	8.18897600	6.06299200
0.02698920	8.18897600	6.14173200
0.02705040	8.18897600	6.14173200
0.02711160	8.18897600	6.14173200
0.02717280	8.18897600	6.14173200
0.02723400	8.18897600	6.14173200
0.02729520	8.18897600	6.14173200
0.02735640	8.18897600	6.14173200
0.02741760	8.18897600	6.14173200
0.02747880	8.18897600	6.14173200
0.02754000	8.18897600	6.22047200
0.02760120	8.18897600	6.22047200
0.02766240	8.11023600	6.22047200
0.02772360	8.11023600	6.22047200
0.02778480	8.11023600	6.22047200
0.02784600	8.11023600	6.22047200
0.02790720	8.03149600	6.22047200
0.02796840	8.03149600	6.22047200
0.02802960	7.95275600	6.29921200
0.02809080	7.95275600	6.29921200
0.02815200	7.87401600	6.29921200
0.02821320	7.79527600	6.29921200
0.02827440	7.71653600	6.29921200
0.02833560	7.63779500	6.29921200
0.02839680	7.63779500	6.29921200
0.02845800	7.55905500	6.29921200
0.02851920	7.48031500	6.29921200
0.02858040	7.32283400	6.37795300
0.02864160	7.32283400	6.37795300
0.02870280	7.16535400	6.37795300
0.02876400	7.08661400	6.37795300
0.02882520	7.00787400	6.37795300
0.02888640	6.85039400	6.37795300
0.02894760	6.77165400	6.37795300
0.02900880	6.69291400	6.45669300
0.02907000	6.53543300	6.37795300
0.02913120	6.37795300	6.45669300
0.02919240	6.29921200	6.45669300
0.02925360	6.14173200	6.45669300
0.02931480	6.06299200	6.45669300
0.02937600	5.90551200	6.45669300
0.02943720	5.74803200	6.45669300
0.02949840	5.66929100	6.53543300
0.02955960	5.51181100	6.45669300
0.02962080	5.35433100	6.45669300
0.02968200	5.27559000	6.45669300
0.02974320	5.11811000	6.53543300
0.02980440	5.03937000	6.53543300
0.02986560	4.88189000	6.53543300
0.02992680	4.72441000	6.53543300
0.02998800	4.64566900	6.53543300
0.03004920	4.48818900	6.53543300
0.03011040	4.33070900	6.61417300
0.03017160	4.25196800	6.53543300
0.03023280	4.09448800	6.61417300
0.03029400	3.93700800	6.61417300
0.03035520	3.85826800	6.61417300
0.03041640	3.70078700	6.61417300
0.03047760	3.54330700	6.61417300
0.03053880	3.46456700	6.61417300
0.03060000	3.30708700	6.61417300
0.03066120	3.14960600	6.61417300
0.03072240	3.07086600	6.69291400
0.03078360	2.91338600	6.69291400
0.03084480	2.75590500	6.69291400
0.03090600	2.67716500	6.69291400
0.03096720	2.59842500	6.69291400
0.03102840	2.44094500	6.69291400
0.03108960	2.36220500	6.69291400
0.03115080	2.20472400	6.69291400
0.03121200	2.12598400	6.77165400
0.03127320	2.04724400	6.69291400
0.03133440	1.96850400	6.77165400
0.03139560	1.88976400	6.77165400
0.03145680	1.73228300	6.77165400
0.03151800	1.65354300	6.77165400
0.03157920	1.57480300	6.77165400
0.03164040	1.49606300	6.77165400
0.03170160	1.41732300	6.85039400
0.03176280	1.33858300	6.77165400
0.03182400	1.25984300	6.85039400
0.03188520	1.18110200	6.85039400
0.03194640	1.10236200	6.85039400
0.03200760	1.02362200	6.85039400
0.03206880	0.94488190	6.85039400
0.03213000	0.86614170	6.85039400
0.03219120	0.78740160	6.85039400
0.03225240	0.70866140	6.85039400
0.03231360	0.70866140	6.85039400
0.03237480	0.62992130	6.92913400
0.03243600	0.55118110	6.92913400
0.03249720	0.55118110	6.92913400
0.03255840	0.47244100	6.92913400
0.03261960	0.47244100	6.92913400
0.03268080	0.39370080	6.92913400
0.03274200	0.31496060	6.92913400
0.03280320	0.31496060	7.00787400
0.03286440	0.31496060	6.92913400
0.03292560	0.23622050	7.00787400
0.03298680	0.23622050	7.00787400
0.03304800	0.23622050	7.00787400
0.03310920	0.23622050	7.00787400
0.03317040	0.23622050	7.00787400
0.03323160	0.23622050	7.00787400
0.03329280	0.23622050	7.00787400
0.03335400	0.23622050	7.00787400
0.03341520	0.23622050	7.08661400
0.03347640	0.23622050	7.00787400
0.03353760	0.23622050	7.08661400
0.03359880	0.31496060	7.08661400
0.03366000	0.31496060	7.08661400
0.03372120	0.31496060	7.08661400
0.03378240	0.39370080	7.08661400
0.03384360	0.39370080	7.08661400
0.03390480	0.47244100	7.16535400
0.03396600	0.47244100	7.08661400
0.03402720	0.55118110	7.16535400
0.03408840	0.55118110	7.16535400
0.03414960	0.62992130	7.16535400
0.03421080	0.70866140	7.16535400
0.03427200	0.70866140	7.16535400
0.03433320	0.78740160	7.16535400
0.03439440	0.86614170	7.16535400
0.03445560	0.94488190	7.16535400
0.03451680	1.02362200	7.24409400
0.03457800	1.02362200	7.24409400
0.03463920	1.10236200	7.24409400
0.03470040	1.18110200	7.24409400
0.03476160	1.25984300	7.24409400
0.03482280	1.33858300	7.24409400
0.03488400	1.41732300	7.24409400
0.03494520	1.49606300	7.24409400
0.03500640	1.57480300	7.32283400
0.03506760	1.73228300	7.32283400
0.03512880	1.81102400	7.32283400
0.03519000	1.88976400	7.32283400
0.03525120	1.96850400	7.32283400
0.03531240	2.04724400	7.32283400
0.03537360	2.12598400	7.32283400
0.03543480	2.20472400	7.32283400
0.03549600	2.36220500	7.40157500
0.03555720	2.44094500	7.32283400
0.03561840	2.51968500	7.40157500
0.03567960	2.59842500	7.32283400
0.03574080	2.67716500	7.40157500
0.03580200	2.75590500	7.40157500
0.03586320	2.83464600	7.40157500
0.03592440	2.99212600	7.40157500
0.03598560	3.07086600	7.40157500
0.03604680	3.14960600	7.40157500
0.03610800	3.30708700	7.40157500
0.03616920	3.38582700	7.40157500
0.03623040	3.46456700	7.48031500
0.03629160	3.54330700	7.48031500
0.03635280	3.70078700	7.48031500
0.03641400	3.77952800	7.48031500
0.03647520	3.85826800	7.48031500
0.03653640	3.93700800	7.48031500
0.03659760	4.09448800	7.55905500
0.03665880	4.17322800	7.48031500
0.03672000	4.25196800	7.55905500
0.03678120	4.40944900	7.55905500
0.03684240	4.48818900	7.55905500
0.03690360	4.64566900	7.55905500
0.03696480	4.72441000	7.55905500
