Tid	Kanal A	Kanal B
(s)	(V)	(V)

0.00000000	1.25984300	8.26771600
0.00006120	1.33858300	8.26771600
0.00012240	1.33858300	8.26771600
0.00018360	1.41732300	8.26771600
0.00024480	1.41732300	8.18897600
0.00030600	1.49606300	8.18897600
0.00036720	1.57480300	8.18897600
0.00042840	1.65354300	8.18897600
0.00048960	1.73228300	8.18897600
0.00055080	1.73228300	8.18897600
0.00061200	1.81102400	8.18897600
0.00067320	1.88976400	8.18897600
0.00073440	1.96850400	8.11023600
0.00079560	1.96850400	8.18897600
0.00085680	2.04724400	8.11023600
0.00091800	2.12598400	8.18897600
0.00097920	2.20472400	8.11023600
0.00104040	2.28346500	8.11023600
0.00110160	2.36220500	8.11023600
0.00116280	2.44094500	8.11023600
0.00122400	2.51968500	8.11023600
0.00128520	2.59842500	8.11023600
0.00134640	2.67716500	8.03149600
0.00140760	2.75590500	8.03149600
0.00146880	2.83464600	8.03149600
0.00153000	2.91338600	8.03149600
0.00159120	2.99212600	8.03149600
0.00165240	3.07086600	8.03149600
0.00171360	3.14960600	8.03149600
0.00177480	3.22834600	8.03149600
0.00183600	3.30708700	8.03149600
0.00189720	3.38582700	8.03149600
0.00195840	3.46456700	7.95275600
0.00201960	3.54330700	7.95275600
0.00208080	3.62204700	7.95275600
0.00214200	3.77952800	7.95275600
0.00220320	3.85826800	7.95275600
0.00226440	3.93700800	7.95275600
0.00232560	4.01574800	7.95275600
0.00238680	4.09448800	7.95275600
0.00244800	4.17322800	7.95275600
0.00250920	4.25196800	7.95275600
0.00257040	4.33070900	7.87401600
0.00263160	4.40944900	7.87401600
0.00269280	4.48818900	7.87401600
0.00275400	4.56692900	7.87401600
0.00281520	4.72441000	7.87401600
0.00287640	4.80315000	7.87401600
0.00293760	4.88189000	7.87401600
0.00299880	4.96063000	7.87401600
0.00306000	4.96063000	7.79527600
0.00312120	5.03937000	7.87401600
0.00318240	5.11811000	7.79527600
0.00324360	5.19685000	7.79527600
0.00330480	5.27559000	7.79527600
0.00336600	5.35433100	7.79527600
0.00342720	5.43307100	7.79527600
0.00348840	5.51181100	7.79527600
0.00354960	5.59055100	7.79527600
0.00361080	5.66929100	7.79527600
0.00367200	5.74803200	7.71653600
0.00373320	5.82677200	7.71653600
0.00379440	5.90551200	7.71653600
0.00385560	5.90551200	7.71653600
0.00391680	5.98425200	7.71653600
0.00397800	6.06299200	7.71653600
0.00403920	6.14173200	7.71653600
0.00410040	6.22047200	7.71653600
0.00416160	6.29921200	7.63779500
0.00422280	6.37795300	7.71653600
0.00428400	6.45669300	7.63779500
0.00434520	6.45669300	7.63779500
0.00440640	6.53543300	7.63779500
0.00446760	6.61417300	7.63779500
0.00452880	6.69291400	7.63779500
0.00459000	6.69291400	7.63779500
0.00465120	6.77165400	7.63779500
0.00471240	6.85039400	7.63779500
0.00477360	6.85039400	7.55905500
0.00483480	6.92913400	7.55905500
0.00489600	7.00787400	7.55905500
0.00495720	7.00787400	7.55905500
0.00501840	7.08661400	7.55905500
0.00507960	7.16535400	7.55905500
0.00514080	7.16535400	7.55905500
0.00520200	7.24409400	7.55905500
0.00526320	7.24409400	7.48031500
0.00532440	7.32283400	7.55905500
0.00538560	7.32283400	7.48031500
0.00544680	7.40157500	7.48031500
0.00550800	7.48031500	7.48031500
0.00556920	7.48031500	7.48031500
0.00563040	7.55905500	7.48031500
0.00569160	7.55905500	7.48031500
0.00575280	7.55905500	7.48031500
0.00581400	7.63779500	7.48031500
0.00587520	7.63779500	7.40157500
0.00593640	7.71653600	7.40157500
0.00599760	7.71653600	7.40157500
0.00605880	7.79527600	7.40157500
0.00612000	7.79527600	7.40157500
0.00618120	7.79527600	7.40157500
0.00624240	7.87401600	7.40157500
0.00630360	7.87401600	7.40157500
0.00636480	7.95275600	7.32283400
0.00642600	7.95275600	7.40157500
0.00648720	7.95275600	7.32283400
0.00654840	7.95275600	7.32283400
0.00660960	8.03149600	7.32283400
0.00667080	8.03149600	7.32283400
0.00673200	8.03149600	7.32283400
0.00679320	8.11023600	7.32283400
0.00685440	8.11023600	7.24409400
0.00691560	8.11023600	7.32283400
0.00697680	8.11023600	7.24409400
0.00703800	8.18897600	7.24409400
0.00709920	8.18897600	7.24409400
0.00716040	8.18897600	7.24409400
0.00722160	8.18897600	7.24409400
0.00728280	8.18897600	7.24409400
0.00734400	8.18897600	7.24409400
0.00740520	8.18897600	7.24409400
0.00746640	8.26771600	7.24409400
0.00752760	8.26771600	7.24409400
0.00758880	8.26771600	7.16535400
0.00765000	8.26771600	7.16535400
0.00771120	8.26771600	7.16535400
0.00777240	8.26771600	7.16535400
0.00783360	8.26771600	7.16535400
0.00789480	8.26771600	7.16535400
0.00795600	8.26771600	7.16535400
0.00801720	8.26771600	7.16535400
0.00807840	8.26771600	7.08661400
0.00813960	8.18897600	7.08661400
0.00820080	8.18897600	7.08661400
0.00826200	8.18897600	7.08661400
0.00832320	8.18897600	7.08661400
0.00838440	8.18897600	7.08661400
0.00844560	8.18897600	7.08661400
0.00850680	8.11023600	7.08661400
0.00856800	8.18897600	7.00787400
0.00862920	8.11023600	7.08661400
0.00869040	8.11023600	7.00787400
0.00875160	8.11023600	7.08661400
0.00881280	8.03149600	7.00787400
0.00887400	8.03149600	7.00787400
0.00893520	7.95275600	7.00787400
0.00899640	7.95275600	7.00787400
0.00905760	7.95275600	7.00787400
0.00911880	7.87401600	7.00787400
0.00918000	7.87401600	7.00787400
0.00924120	7.79527600	6.92913400
0.00930240	7.71653600	6.92913400
0.00936360	7.71653600	6.92913400
0.00942480	7.63779500	6.92913400
0.00948600	7.63779500	6.92913400
0.00954720	7.55905500	6.92913400
0.00960840	7.48031500	6.92913400
0.00966960	7.40157500	6.85039400
0.00973080	7.32283400	6.92913400
0.00979200	7.24409400	6.85039400
0.00985320	7.24409400	6.92913400
0.00991440	7.16535400	6.85039400
0.00997560	7.08661400	6.85039400
0.01003680	7.00787400	6.85039400
0.01009800	6.92913400	6.85039400
0.01015920	6.77165400	6.77165400
0.01022040	6.69291400	6.85039400
0.01028160	6.61417300	6.77165400
0.01034280	6.53543300	6.85039400
0.01040400	6.45669300	6.85039400
0.01046520	6.37795300	6.77165400
0.01052640	6.22047200	6.77165400
0.01058760	6.14173200	6.77165400
0.01064880	6.06299200	6.77165400
0.01071000	5.98425200	6.77165400
0.01077120	5.82677200	6.77165400
0.01083240	5.74803200	6.77165400
0.01089360	5.66929100	6.77165400
0.01095480	5.59055100	6.77165400
0.01101600	5.43307100	6.69291400
0.01107720	5.35433100	6.69291400
0.01113840	5.19685000	6.69291400
0.01119960	5.11811000	6.69291400
0.01126080	4.96063000	6.69291400
0.01132200	4.88189000	6.69291400
0.01138320	4.80315000	6.69291400
0.01144440	4.64566900	6.69291400
0.01150560	4.48818900	6.61417300
0.01156680	4.40944900	6.61417300
0.01162800	4.25196800	6.61417300
0.01168920	4.17322800	6.61417300
0.01175040	4.09448800	6.61417300
0.01181160	3.93700800	6.61417300
0.01187280	3.85826800	6.61417300
0.01193400	3.70078700	6.61417300
0.01199520	3.62204700	6.61417300
0.01205640	3.54330700	6.61417300
0.01211760	3.38582700	6.53543300
0.01217880	3.30708700	6.53543300
0.01224000	3.22834600	6.53543300
0.01230120	3.07086600	6.53543300
0.01236240	2.99212600	6.53543300
0.01242360	2.91338600	6.53543300
0.01248480	2.83464600	6.53543300
0.01254600	2.75590500	6.53543300
0.01260720	2.59842500	6.45669300
0.01266840	2.51968500	6.45669300
0.01272960	2.44094500	6.45669300
0.01279080	2.36220500	6.45669300
0.01285200	2.28346500	6.45669300
0.01291320	2.20472400	6.45669300
0.01297440	2.12598400	6.45669300
0.01303560	1.96850400	6.45669300
0.01309680	1.96850400	6.45669300
0.01315800	1.88976400	6.45669300
0.01321920	1.81102400	6.37795300
0.01328040	1.65354300	6.37795300
0.01334160	1.65354300	6.37795300
0.01340280	1.49606300	6.37795300
0.01346400	1.41732300	6.37795300
0.01352520	1.41732300	6.37795300
0.01358640	1.33858300	6.37795300
0.01364760	1.25984300	6.37795300
0.01370880	1.18110200	6.29921200
0.01377000	1.10236200	6.37795300
0.01383120	1.02362200	6.29921200
0.01389240	0.94488190	6.29921200
0.01395360	0.94488190	6.29921200
0.01401480	0.86614170	6.29921200
0.01407600	0.78740160	6.29921200
0.01413720	0.70866140	6.29921200
0.01419840	0.70866140	6.29921200
0.01425960	0.70866140	6.29921200
0.01432080	0.62992130	6.22047200
0.01438200	0.55118110	6.29921200
0.01444320	0.55118110	6.22047200
0.01450440	0.47244100	6.22047200
0.01456560	0.47244100	6.22047200
0.01462680	0.39370080	6.22047200
0.01468800	0.39370080	6.22047200
0.01474920	0.31496060	6.22047200
0.01481040	0.31496060	6.14173200
0.01487160	0.31496060	6.22047200
0.01493280	0.23622050	6.14173200
0.01499400	0.23622050	6.14173200
0.01505520	0.23622050	6.14173200
0.01511640	0.23622050	6.14173200
0.01517760	0.15748030	6.14173200
0.01523880	0.15748030	6.14173200
0.01530000	0.15748030	6.06299200
0.01536120	0.15748030	6.14173200
0.01542240	0.15748030	6.06299200
0.01548360	0.15748030	6.06299200
0.01554480	0.15748030	6.06299200
0.01560600	0.15748030	6.06299200
0.01566720	0.15748030	6.06299200
0.01572840	0.15748030	6.06299200
0.01578960	0.15748030	6.06299200
0.01585080	0.23622050	6.06299200
0.01591200	0.23622050	5.98425200
0.01597320	0.23622050	5.98425200
0.01603440	0.31496060	5.98425200
0.01609560	0.31496060	5.98425200
0.01615680	0.39370080	5.98425200
0.01621800	0.39370080	5.98425200
0.01627920	0.39370080	5.98425200
0.01634040	0.47244100	5.98425200
0.01640160	0.55118110	5.98425200
0.01646280	0.55118110	5.98425200
0.01652400	0.62992130	5.90551200
0.01658520	0.62992130	5.98425200
0.01664640	0.70866140	5.90551200
0.01670760	0.70866140	5.90551200
0.01676880	0.78740160	5.90551200
0.01683000	0.86614170	5.90551200
0.01689120	0.94488190	5.90551200
0.01695240	0.94488190	5.90551200
0.01701360	1.02362200	5.82677200
0.01707480	1.10236200	5.90551200
0.01713600	1.18110200	5.82677200
0.01719720	1.25984300	5.82677200
0.01725840	1.33858300	5.82677200
0.01731960	1.33858300	5.82677200
0.01738080	1.41732300	5.82677200
0.01744200	1.49606300	5.82677200
0.01750320	1.57480300	5.82677200
0.01756440	1.65354300	5.82677200
0.01762560	1.73228300	5.74803200
0.01768680	1.81102400	5.74803200
0.01774800	1.88976400	5.74803200
0.01780920	2.04724400	5.74803200
0.01787040	2.04724400	5.74803200
0.01793160	2.12598400	5.74803200
0.01799280	2.28346500	5.74803200
0.01805400	2.36220500	5.74803200
0.01811520	2.44094500	5.66929100
0.01817640	2.51968500	5.74803200
0.01823760	2.59842500	5.66929100
0.01829880	2.67716500	5.66929100
0.01836000	2.75590500	5.66929100
0.01842120	2.91338600	5.66929100
0.01848240	2.99212600	5.66929100
0.01854360	3.07086600	5.66929100
0.01860480	3.14960600	5.66929100
0.01866600	3.22834600	5.66929100
0.01872720	3.30708700	5.66929100
0.01878840	3.46456700	5.59055100
0.01884960	3.54330700	5.59055100
0.01891080	3.62204700	5.59055100
0.01897200	3.70078700	5.59055100
0.01903320	3.85826800	5.59055100
0.01909440	3.85826800	5.59055100
0.01915560	4.01574800	5.59055100
0.01921680	4.09448800	5.59055100
0.01927800	4.17322800	5.59055100
0.01933920	4.25196800	5.51181100
0.01940040	4.40944900	5.51181100
0.01946160	4.48818900	5.51181100
0.01952280	4.56692900	5.51181100
0.01958400	4.64566900	5.51181100
0.01964520	4.72441000	5.51181100
0.01970640	4.88189000	5.51181100
0.01976760	4.96063000	5.51181100
0.01982880	5.03937000	5.43307100
0.01989000	5.11811000	5.51181100
0.01995120	5.19685000	5.43307100
0.02001240	5.27559000	5.43307100
0.02007360	5.35433100	5.43307100
0.02013480	5.43307100	5.43307100
0.02019600	5.59055100	5.43307100
0.02025720	5.66929100	5.43307100
0.02031840	5.74803200	5.43307100
0.02037960	5.82677200	5.43307100
0.02044080	5.90551200	5.35433100
0.02050200	5.98425200	5.35433100
0.02056320	6.06299200	5.35433100
0.02062440	6.14173200	5.35433100
0.02068560	6.22047200	5.35433100
0.02074680	6.29921200	5.35433100
0.02080800	6.37795300	5.35433100
0.02086920	6.45669300	5.35433100
0.02093040	6.53543300	5.35433100
0.02099160	6.61417300	5.35433100
0.02105280	6.69291400	5.27559000
0.02111400	6.77165400	5.27559000
0.02117520	6.85039400	5.27559000
0.02123640	6.85039400	5.27559000
0.02129760	6.92913400	5.27559000
0.02135880	7.00787400	5.27559000
0.02142000	7.08661400	5.19685000
0.02148120	7.16535400	5.27559000
0.02154240	7.16535400	5.19685000
0.02160360	7.24409400	5.19685000
0.02166480	7.32283400	5.19685000
0.02172600	7.32283400	5.19685000
0.02178720	7.40157500	5.19685000
0.02184840	7.48031500	5.19685000
0.02190960	7.48031500	5.19685000
0.02197080	7.55905500	5.19685000
0.02203200	7.63779500	5.19685000
0.02209320	7.63779500	5.19685000
0.02215440	7.71653600	5.11811000
0.02221560	7.71653600	5.11811000
0.02227680	7.79527600	5.11811000
0.02233800	7.79527600	5.11811000
0.02239920	7.87401600	5.11811000
0.02246040	7.87401600	5.11811000
0.02252160	7.95275600	5.11811000
0.02258280	7.95275600	5.11811000
0.02264400	7.95275600	5.11811000
0.02270520	7.95275600	5.03937000
0.02276640	8.03149600	5.03937000
0.02282760	8.03149600	5.03937000
0.02288880	8.03149600	5.03937000
0.02295000	8.11023600	5.03937000
0.02301120	8.11023600	5.03937000
0.02307240	8.11023600	5.03937000
0.02313360	8.11023600	4.96063000
0.02319480	8.11023600	5.03937000
0.02325600	8.18897600	4.96063000
0.02331720	8.11023600	4.96063000
0.02337840	8.18897600	4.96063000
0.02343960	8.18897600	4.96063000
0.02350080	8.18897600	4.96063000
0.02356200	8.18897600	4.96063000
0.02362320	8.18897600	4.88189000
0.02368440	8.18897600	4.96063000
0.02374560	8.18897600	4.88189000
0.02380680	8.18897600	4.88189000
0.02386800	8.18897600	4.88189000
0.02392920	8.18897600	4.88189000
0.02399040	8.11023600	4.88189000
0.02405160	8.18897600	4.88189000
0.02411280	8.11023600	4.88189000
0.02417400	8.11023600	4.88189000
0.02423520	8.11023600	4.88189000
0.02429640	8.11023600	4.88189000
0.02435760	8.03149600	4.80315000
0.02441880	8.11023600	4.80315000
0.02448000	8.03149600	4.80315000
0.02454120	8.03149600	4.80315000
0.02460240	7.95275600	4.80315000
0.02466360	7.95275600	4.80315000
0.02472480	7.87401600	4.80315000
0.02478600	7.87401600	4.80315000
0.02484720	7.79527600	4.80315000
0.02490840	7.71653600	4.80315000
0.02496960	7.71653600	4.80315000
0.02503080	7.63779500	4.72441000
0.02509200	7.55905500	4.72441000
0.02515320	7.48031500	4.72441000
0.02521440	7.48031500	4.72441000
0.02527560	7.40157500	4.72441000
0.02533680	7.24409400	4.72441000
0.02539800	7.24409400	4.72441000
0.02545920	7.16535400	4.72441000
0.02552040	7.08661400	4.64566900
0.02558160	7.00787400	4.64566900
0.02564280	6.92913400	4.64566900
0.02570400	6.85039400	4.64566900
0.02576520	6.69291400	4.64566900
0.02582640	6.61417300	4.64566900
0.02588760	6.53543300	4.64566900
0.02594880	6.45669300	4.64566900
0.02601000	6.37795300	4.64566900
0.02607120	6.22047200	4.56692900
0.02613240	6.14173200	4.64566900
0.02619360	5.98425200	4.56692900
0.02625480	5.90551200	4.56692900
0.02631600	5.74803200	4.56692900
0.02637720	5.66929100	4.56692900
0.02643840	5.51181100	4.56692900
0.02649960	5.43307100	4.56692900
0.02656080	5.27559000	4.48818900
0.02662200	5.19685000	4.56692900
0.02668320	5.03937000	4.48818900
0.02674440	4.96063000	4.48818900
0.02680560	4.80315000	4.48818900
0.02686680	4.64566900	4.48818900
0.02692800	4.56692900	4.48818900
0.02698920	4.40944900	4.48818900
0.02705040	4.25196800	4.40944900
0.02711160	4.17322800	4.48818900
0.02717280	4.01574800	4.48818900
0.02723400	3.93700800	4.40944900
0.02729520	3.77952800	4.40944900
0.02735640	3.70078700	4.40944900
0.02741760	3.54330700	4.40944900
0.02747880	3.46456700	4.40944900
0.02754000	3.38582700	4.40944900
0.02760120	3.22834600	4.40944900
0.02766240	3.14960600	4.40944900
0.02772360	2.99212600	4.40944900
0.02778480	2.91338600	4.33070900
0.02784600	2.83464600	4.33070900
0.02790720	2.67716500	4.33070900
0.02796840	2.59842500	4.33070900
0.02802960	2.51968500	4.33070900
0.02809080	2.36220500	4.33070900
0.02815200	2.28346500	4.33070900
0.02821320	2.20472400	4.33070900
0.02827440	2.04724400	4.25196800
0.02833560	1.96850400	4.25196800
0.02839680	1.88976400	4.25196800
0.02845800	1.81102400	4.25196800
0.02851920	1.73228300	4.25196800
0.02858040	1.57480300	4.25196800
0.02864160	1.49606300	4.25196800
0.02870280	1.41732300	4.25196800
0.02876400	1.33858300	4.17322800
0.02882520	1.25984300	4.25196800
0.02888640	1.18110200	4.17322800
0.02894760	1.10236200	4.17322800
0.02900880	1.02362200	4.17322800
0.02907000	0.94488190	4.17322800
0.02913120	0.86614170	4.17322800
0.02919240	0.86614170	4.17322800
0.02925360	0.78740160	4.17322800
0.02931480	0.70866140	4.17322800
0.02937600	0.62992130	4.09448800
0.02943720	0.62992130	4.09448800
0.02949840	0.55118110	4.09448800
0.02955960	0.47244100	4.09448800
0.02962080	0.47244100	4.09448800
0.02968200	0.39370080	4.09448800
0.02974320	0.39370080	4.09448800
0.02980440	0.31496060	4.09448800
0.02986560	0.31496060	4.09448800
0.02992680	0.31496060	4.09448800
0.02998800	0.23622050	4.01574800
0.03004920	0.23622050	4.01574800
0.03011040	0.23622050	4.01574800
0.03017160	0.23622050	4.01574800
0.03023280	0.15748030	4.01574800
0.03029400	0.15748030	4.01574800
0.03035520	0.15748030	4.01574800
0.03041640	0.15748030	4.01574800
0.03047760	0.15748030	4.01574800
0.03053880	0.15748030	4.01574800
0.03060000	0.15748030	3.93700800
0.03066120	0.23622050	3.93700800
0.03072240	0.23622050	3.93700800
0.03078360	0.23622050	3.93700800
0.03084480	0.23622050	3.93700800
0.03090600	0.31496060	3.93700800
0.03096720	0.31496060	3.93700800
0.03102840	0.31496060	3.93700800
0.03108960	0.39370080	3.93700800
0.03115080	0.39370080	3.85826800
0.03121200	0.47244100	3.85826800
0.03127320	0.47244100	3.85826800
0.03133440	0.55118110	3.85826800
0.03139560	0.55118110	3.85826800
0.03145680	0.62992130	3.85826800
0.03151800	0.70866140	3.85826800
0.03157920	0.78740160	3.85826800
0.03164040	0.86614170	3.85826800
0.03170160	0.86614170	3.77952800
0.03176280	0.94488190	3.77952800
0.03182400	0.94488190	3.77952800
0.03188520	1.02362200	3.77952800
0.03194640	1.10236200	3.77952800
0.03200760	1.10236200	3.77952800
0.03206880	1.18110200	3.77952800
0.03213000	1.25984300	3.77952800
0.03219120	1.33858300	3.70078700
0.03225240	1.41732300	3.77952800
0.03231360	1.49606300	3.70078700
0.03237480	1.57480300	3.70078700
0.03243600	1.57480300	3.70078700
0.03249720	1.73228300	3.70078700
0.03255840	1.81102400	3.70078700
0.03261960	1.88976400	3.70078700
0.03268080	1.96850400	3.70078700
0.03274200	2.04724400	3.70078700
0.03280320	2.12598400	3.62204700
0.03286440	2.20472400	3.62204700
0.03292560	2.36220500	3.62204700
0.03298680	2.44094500	3.62204700
0.03304800	2.51968500	3.62204700
0.03310920	2.67716500	3.62204700
0.03317040	2.75590500	3.62204700
0.03323160	2.91338600	3.62204700
0.03329280	2.99212600	3.54330700
0.03335400	3.07086600	3.62204700
0.03341520	3.14960600	3.54330700
0.03347640	3.30708700	3.54330700
0.03353760	3.38582700	3.54330700
0.03359880	3.46456700	3.54330700
0.03366000	3.62204700	3.54330700
0.03372120	3.70078700	3.54330700
0.03378240	3.77952800	3.54330700
0.03384360	3.85826800	3.54330700
0.03390480	3.93700800	3.46456700
0.03396600	4.09448800	3.46456700
0.03402720	4.17322800	3.46456700
0.03408840	4.25196800	3.54330700
0.03414960	4.40944900	3.46456700
0.03421080	4.48818900	3.46456700
0.03427200	4.56692900	3.46456700
0.03433320	4.72441000	3.46456700
0.03439440	4.80315000	3.46456700
0.03445560	4.88189000	3.38582700
0.03451680	5.03937000	3.38582700
0.03457800	5.11811000	3.38582700
0.03463920	5.27559000	3.38582700
0.03470040	5.35433100	3.38582700
0.03476160	5.43307100	3.38582700
0.03482280	5.59055100	3.38582700
0.03488400	5.66929100	3.38582700
0.03494520	5.82677200	3.38582700
0.03500640	5.90551200	3.30708700
0.03506760	5.98425200	3.30708700
0.03512880	6.06299200	3.30708700
0.03519000	6.22047200	3.30708700
0.03525120	6.29921200	3.30708700
0.03531240	6.37795300	3.30708700
0.03537360	6.45669300	3.30708700
0.03543480	6.53543300	3.30708700
0.03549600	6.61417300	3.30708700
0.03555720	6.69291400	3.30708700
0.03561840	6.77165400	3.30708700
0.03567960	6.85039400	3.22834600
0.03574080	6.92913400	3.22834600
0.03580200	7.00787400	3.22834600
0.03586320	7.08661400	3.22834600
0.03592440	7.16535400	3.22834600
0.03598560	7.24409400	3.22834600
0.03604680	7.32283400	3.22834600
0.03610800	7.32283400	3.22834600
0.03616920	7.40157500	3.22834600
0.03623040	7.48031500	3.14960600
0.03629160	7.55905500	3.22834600
0.03635280	7.55905500	3.14960600
0.03641400	7.63779500	3.14960600
0.03647520	7.63779500	3.14960600
0.03653640	7.71653600	3.14960600
0.03659760	7.71653600	3.14960600
0.03665880	7.79527600	3.14960600
0.03672000	7.87401600	3.07086600
0.03678120	7.87401600	3.14960600
0.03684240	7.87401600	3.14960600
0.03690360	7.95275600	3.07086600
0.03696480	7.95275600	3.07086600
