Data from FLMS055071_15-25-01-774.txt Node
Date: Wed Apr 21 15:25:01 CEST 2021
User: au643642
Spectrometer: FLMS05507
Trigger mode: 0
Integration Time (sec): 1,500000E-2
Scans to average: 20
Electric dark correction enabled: true
Nonlinearity correction enabled: false
Boxcar width: 0
XAxis mode: Pixels
Number of Pixels in Spectrum: 2048
>>>>>Begin Spectral Data<<<<<
0	-13,14
1	-13,14
2	-13,14
3	-79,26
4	-65,45
5	-88,27
6	-71,06
7	-77,62
8	-71,06
9	-59,83
10	-43,33
11	-21,8
12	-11,15
13	-2,02
14	28,99
15	23,84
16	45,96
17	74,17
18	76,86
19	93,24
20	103,07
21	136,54
22	131,51
23	163,81
24	216,59
25	227,35
26	222,67
27	233,79
28	247,37
29	256,49
30	269,48
31	254,62
32	289,14
33	288,68
34	292,07
35	304,59
36	319,22
37	317,93
38	316,18
39	321,79
40	322,38
41	329,75
42	340,87
43	327,41
44	330,1
45	335,02
46	329,75
47	327,76
48	312,55
49	314,42
50	320,51
51	325,66
52	315,83
53	298,15
54	307,63
55	308,92
56	311,5
57	301,67
58	304,12
59	308,8
60	313,02
61	294,18
62	295,58
63	294,88
64	296,4
65	297,57
66	302,25
67	305,64
68	292,54
69	289,03
70	286,69
71	305,53
72	292,07
73	301,2
74	294,64
75	293,36
76	302,37
77	296,63
78	290,2
79	299,21
80	289,14
81	287,74
82	299,21
83	285,17
84	284,93
85	312,32
86	306
87	298,51
88	290,08
89	295,46
90	298,51
91	292,42
92	297,92
93	298,74
94	300,26
95	307,75
96	307,17
97	300,61
98	282,24
99	290,55
100	310,44
101	306,7
102	301,67
103	301,31
104	292,77
105	309,62
106	323,2
107	294,88
108	308,92
109	315,94
110	313,37
111	300,5
112	310,79
113	308,92
114	305,53
115	308,69
116	312,55
117	311,96
118	307,75
119	309,51
120	314,54
121	296,75
122	313,37
123	313,95
124	302,72
125	317,82
126	294,29
127	299,09
128	303,89
129	302,13
130	303,07
131	317,11
132	295,35
133	304,47
134	318,05
135	311,5
136	322,38
137	309,16
138	303,66
139	313,49
140	309,16
141	316,18
142	309,62
143	309,86
144	324,95
145	312,32
146	314,89
147	316,65
148	312,43
149	317,93
150	309,27
151	317,93
152	310,33
153	303,42
154	310,56
155	312,43
156	302,13
157	319,92
158	318,17
159	330,22
160	310,91
161	314,54
162	314,77
163	311,38
164	318,63
165	306,11
166	311,61
167	307,63
168	304,12
169	309,74
170	331,51
171	314,54
172	323,78
173	313,72
174	333,85
175	310,79
176	321,21
177	315,71
178	328,23
179	315,24
180	306,93
181	322,26
182	317,93
183	317,7
184	311,26
185	311,03
186	318,87
187	307,52
188	311,5
189	333,26
190	319,34
191	328,58
192	323,43
193	316,53
194	327,88
195	318,52
196	310,44
197	309,27
198	319,45
199	322,38
200	306,46
201	334,32
202	321,44
203	323,32
204	336,42
205	315,24
206	324,84
207	329,17
208	307,99
209	328,35
210	331,62
211	330,34
212	325,89
213	330,69
214	322,03
215	341,69
216	327,41
217	336,31
218	320,62
219	321,68
220	333,97
221	324,84
222	328,82
223	339,93
224	321,56
225	323,2
226	341,92
227	316,06
228	327,53
229	329,75
230	329,28
231	321,33
232	319,34
233	324,25
234	313,72
235	326,01
236	327,29
237	328,7
238	324,13
239	329,52
240	321,79
241	331,98
242	331,16
243	333,73
244	327,53
245	328,23
246	327,65
247	337,94
248	334,08
249	332,91
250	330,81
251	329,28
252	336,66
253	342,27
254	322,85
255	316,76
256	333,38
257	333,85
258	331,39
259	328,82
260	346,6
261	332,21
262	331,98
263	327,76
264	326,71
265	325,77
266	333,73
267	348,36
268	346,37
269	331,74
270	318,05
271	331,04
272	327,76
273	332,44
274	331,16
275	326,71
276	327,53
277	330,22
278	330,22
279	335,6
280	319,1
281	342,51
282	342,74
283	340,87
284	331,27
285	333,38
286	344,38
287	334,32
288	343,68
289	330,34
290	346,37
291	318,63
292	331,27
293	340,64
294	331,86
295	320,98
296	333,15
297	331,51
298	333,73
299	330,92
300	335,84
301	335,72
302	337,36
303	335,72
304	323,55
305	308,45
306	344,73
307	323,2
308	334,2
309	335,14
310	330,22
311	333,26
312	331,74
313	344,26
314	343,09
315	329,17
316	323,32
317	332,33
318	338,88
319	326,83
320	340,17
321	327,76
322	337,12
323	347,66
324	335,49
325	335,49
326	328,82
327	336,42
328	339,93
329	340,87
330	335,84
331	326,71
332	331,86
333	335,14
334	328,46
335	341,69
336	342,86
337	333,97
338	344,15
339	337,71
340	334,32
341	331,86
342	335,25
343	337,59
344	340,52
345	340,28
346	335,37
347	320,16
348	342,27
349	336,54
350	335,14
351	344,85
352	333,15
353	338,3
354	331,27
355	326,48
356	340,4
357	354,8
358	336,31
359	340,87
360	345,08
361	342,39
362	333,15
363	329,4
364	347,89
365	349,18
366	333,5
367	321,68
368	353,51
369	334,2
370	331,51
371	334,67
372	343,09
373	337,71
374	339,7
375	329,87
376	339,82
377	342,27
378	339,11
379	330,57
380	339,35
381	337,24
382	328,7
383	339,35
384	343,09
385	333,97
386	352,1
387	344,85
388	336,42
389	354,8
390	335,25
391	347,54
392	338,65
393	345,78
394	355,03
395	339,7
396	333,85
397	334,55
398	332,09
399	329,52
400	344,38
401	343,21
402	360,53
403	347,07
404	343,09
405	355,5
406	343,56
407	347,89
408	334,55
409	342,51
410	352,57
411	346,96
412	350,82
413	351,64
414	364,16
415	347,54
416	339,11
417	365,21
418	350,82
419	359,59
420	355,62
421	342,51
422	356,43
423	328,7
424	352,1
425	361,23
426	347,89
427	349,3
428	346,37
429	353,98
430	357,96
431	348,13
432	353,86
433	359,48
434	347,89
435	356,9
436	355,15
437	355,03
438	359,83
439	350,47
440	362,99
441	357,25
442	341,45
443	370,59
444	362,4
445	389,44
446	388,27
447	380,66
448	374,92
449	383,58
450	384,64
451	399,73
452	420,33
453	433,32
454	464,22
455	484,81
456	495,46
457	500,14
458	523,67
459	586,39
460	668,31
461	775,16
462	935,72
463	1074,74
464	1223,72
465	1406,75
466	1601,6
467	1839,16
468	2043,61
469	2322,72
470	2572,22
471	2823,83
472	3092,29
473	3365,43
474	3699,89
475	4008,61
476	4268,52
477	4548,22
478	4867,47
479	5144,59
480	5392,57
481	5646,16
482	5951,13
483	6427,2
484	6785,53
485	7335,09
486	7718,47
487	7617,13
488	7735,21
489	8021,34
490	8519,52
491	9064,16
492	9489,91
493	9732,97
494	9934,84
495	10001,31
496	10171,24
497	10562,34
498	10763,74
499	10585,86
500	11123,25
501	11108,86
502	11299,02
503	11454,55
504	11278,78
505	11188,55
506	11346,42
507	11385,27
508	11558,94
509	11335,65
510	11586,91
511	11794,16
512	11860,52
513	12335,3
514	12333,54
515	12274,09
516	11727,93
517	11897,15
518	11970,52
519	11907,68
520	12127,57
521	12171,34
522	12075,38
523	12074,44
524	12057,71
525	12152,38
526	11737,29
527	11691,18
528	11371,46
529	11706,16
530	11548,76
531	11045,19
532	10651,4
533	10012,55
534	9295,29
535	9393,59
536	9682,88
537	10538,93
538	11248,59
539	11373,22
540	11801,42
541	11830,21
542	11514,12
543	11452,68
544	11991,59
545	12156,95
546	12368,65
547	12595,33
548	12723,47
549	12766,66
550	12658,41
551	12346,53
552	12272,69
553	11994,05
554	12028,33
555	12335,18
556	12228,22
557	12366,43
558	12752,96
559	12907,21
560	13228,56
561	13420,13
562	13632,89
563	13328,85
564	13324,87
565	14019,78
566	13820,95
567	13822,82
568	13648,69
569	13403,63
570	13494,21
571	13681,46
572	13818,61
573	13545,94
574	14219,54
575	14578,58
576	13924,64
577	14282,15
578	14483,09
579	14598,95
580	14881,56
581	15076,77
582	14993,33
583	14675,25
584	14562,2
585	14226,33
586	14517,38
587	14346,52
588	14079,35
589	14291,4
590	14282,27
591	14534,23
592	14337,39
593	14547,8
594	14654,06
595	14828,9
596	14742,3
597	14558,34
598	14295,73
599	14052,9
600	14492,33
601	14026,1
602	14515,04
603	14612,75
604	14797,77
605	14832,3
606	15108,01
607	15020,59
608	15256,17
609	15017,9
610	15011,7
611	14939,73
612	14896,66
613	14955,88
614	14903,45
615	14831,83
616	14992,97
617	14723,11
618	14855,12
619	14792,62
620	14695,96
621	15109,18
622	15420,36
623	15366,52
624	15325,45
625	15031,71
626	15457,34
627	15266,23
628	15672,43
629	16051,36
630	16366,17
631	16204,2
632	16225,73
633	16440,83
634	16580,09
635	17050,42
636	17304,02
637	17456,62
638	17366,63
639	17271,84
640	17805,95
641	17764,87
642	18499,33
643	18440,23
644	18442,92
645	18757,96
646	19124,02
647	19296,63
648	19485,63
649	19722,73
650	19793,3
651	20006,17
652	20377,73
653	20326,12
654	20423,95
655	20491,59
656	20261,75
657	20308,92
658	20259,18
659	20196,45
660	19227,94
661	18502,49
662	18055,21
663	18230,52
664	18498,28
665	18985,93
666	19386,39
667	19547,66
668	19810,38
669	20054,73
670	20485,98
671	20796,1
672	20871,46
673	20670,88
674	20529,86
675	20080,71
676	20268,07
677	20396,45
678	20369,65
679	20635,19
680	20636,47
681	21087,5
682	21083,63
683	20986,97
684	21023,48
685	20863,86
686	21058
687	21090,19
688	20886,56
689	20695,34
690	20352,45
691	20343,32
692	20533,96
693	20217,4
694	20036,24
695	19690,2
696	19630,39
697	19395,17
698	19219,98
699	19443,5
700	19635,54
701	19548,01
702	19502,13
703	19507,17
704	19570,13
705	19674,63
706	20019,86
707	20128,81
708	20052,63
709	20114,53
710	19964,04
711	19823,26
712	19637,07
713	19564,04
714	19766,15
715	19729,52
716	19759,48
717	19513,25
718	19594,47
719	19704,71
720	19545,78
721	19853,68
722	19598,21
723	19347,89
724	19204,18
725	19043,86
726	18757,14
727	18662,23
728	18642,45
729	18662,93
730	18726,13
731	18164,05
732	17457,09
733	16773,65
734	16822,57
735	16765,46
736	16576,81
737	16855,81
738	16935,39
739	17398,69
740	17489,39
741	17730,93
742	17804,66
743	17881,55
744	17950,48
745	17898,16
746	17675,93
747	17434,27
748	17575,29
749	17672,77
750	17918,64
751	17874,76
752	17672,19
753	17640,82
754	17118,88
755	16630,65
756	16163,36
757	16148,26
758	16332,46
759	16544,75
760	16717,95
761	16820,35
762	16912,92
763	16882,02
764	16870,2
765	16972,95
766	17139,71
767	17000,57
768	16651,83
769	16268,68
770	16062,25
771	16025,03
772	16045,86
773	15944,05
774	16059,67
775	16163,94
776	16214,85
777	16296,65
778	16084,72
779	15905,08
780	15684,84
781	15704,61
782	15771,67
783	15643,76
784	15541,36
785	15471,38
786	15112,58
787	15009,71
788	14792,62
789	14754,71
790	14825,16
791	14935,05
792	14828,43
793	14776,71
794	14747,92
795	14939,84
796	14866,12
797	14894,09
798	14779,05
799	14764,66
800	14722,53
801	14729,78
802	14663,19
803	14576,83
804	14407,14
805	14258,4
806	14290,46
807	14201,41
808	14416,62
809	14229,14
810	14171,21
811	14042,72
812	14000,7
813	13947,57
814	14059,57
815	13874,43
816	13874,78
817	13721,13
818	13661,91
819	13738,56
820	13688,13
821	13742,54
822	13690,7
823	13560,68
824	13544,07
825	13355,42
826	13148,52
827	12986,08
828	12961,97
829	12905,68
830	12673,97
831	12425,17
832	12399,66
833	12354,61
834	12443,66
835	12409,61
836	12421,66
837	12438,4
838	12281,46
839	12222,01
840	12219,91
841	12143,37
842	12068,01
843	12129,45
844	11987,61
845	11969,12
846	11933,66
847	11786,32
848	11619,09
849	11627,28
850	11636,65
851	11723,83
852	11695,04
853	11527,46
854	11443,08
855	11456,31
856	11446,59
857	11468,71
858	11225,3
859	11227,87
860	11123,95
861	11254,67
862	11269,07
863	11401,42
864	11344,31
865	11314,94
866	11263,45
867	11142,44
868	11062,86
869	10864,74
870	10739,4
871	10552,98
872	10502,77
873	10441,45
874	10364,45
875	10252,57
876	10137,18
877	9972,06
878	9842,51
879	9802,95
880	9840,05
881	9820,27
882	9840,99
883	9748,89
884	9756,49
885	9687,8
886	9690,96
887	9717,17
888	9668,61
889	9624,6
890	9600,61
891	9521,39
892	9405,18
893	9243,8
894	9166,56
895	9047,55
896	9087,69
897	9067,21
898	9049,65
899	8924,78
900	8832,22
901	8573,35
902	8257,38
903	8089,8
904	8035,15
905	8151,24
906	8261,01
907	8415,95
908	8409,87
909	8435,73
910	8360,83
911	8436,31
912	8487,69
913	8450,01
914	8448,02
915	8456,91
916	8402,49
917	8435,5
918	8472,94
919	8531,57
920	8506,18
921	8490,03
922	8526,54
923	8501,5
924	8535,09
925	8446,26
926	8499,98
927	8450,83
928	8351,12
929	8389,86
930	8385,64
931	8199,92
932	8137,9
933	8102,91
934	8082,78
935	8010,45
936	8032,22
937	7970,31
938	7969,26
939	7966,34
940	7805,31
941	7725,03
942	7639,71
943	7576,28
944	7526,31
945	7448,73
946	7424,03
947	7318,83
948	7140,36
949	7063,24
950	7079,51
951	6937,2
952	6857,86
953	6847,21
954	6778,98
955	6797,82
956	6686,53
957	6603,21
958	6543,64
959	6483,61
960	6386,59
961	6299,64
962	6254,82
963	6168,1
964	6150,55
965	6075,88
966	5969,51
967	5887,35
968	5842,06
969	5810,94
970	5811,64
971	5819,13
972	5800,87
973	5720,94
974	5733,7
975	5674,72
976	5676,94
977	5617,14
978	5623,46
979	5573,02
980	5517,32
981	5483,85
982	5412,81
983	5357,34
984	5291,8
985	5222,06
986	5191,28
987	5090,05
988	5029,9
989	5016,32
990	4988,59
991	4987,54
992	4931,6
993	4926,8
994	4785,9
995	4737,33
996	4690,17
997	4704,45
998	4633,3
999	4602,17
1000	4560,5
1001	4540,84
1002	4551,96
1003	4510,77
1004	4479,64
1005	4493,45
1006	4474,26
1007	4496,37
1008	4475,43
1009	4460,33
1010	4420,77
1011	4402,87
1012	4386,72
1013	4376,77
1014	4303,98
1015	4276,36
1016	4294,27
1017	4296,73
1018	4315,68
1019	4309,37
1020	4291,93
1021	4228,85
1022	4213,64
1023	4143,66
1024	4122,47
1025	4068,41
1026	4080,11
1027	4028,27
1028	4032,48
1029	3992,81
1030	3995,73
1031	4002,64
1032	3928,33
1033	3945,88
1034	3885,85
1035	3868,17
1036	3818,67
1037	3848,4
1038	3787,07
1039	3735,7
1040	3716,51
1041	3718,5
1042	3656,24
1043	3637,16
1044	3614,93
1045	3605,68
1046	3514,87
1047	3477,19
1048	3480,46
1049	3508,08
1050	3507,38
1051	3501,65
1052	3474,03
1053	3413,06
1054	3444,19
1055	3392,34
1056	3395,15
1057	3364,26
1058	3380,99
1059	3306,68
1060	3283,16
1061	3167,07
1062	3024,29
1063	2895,45
1064	2876,61
1065	2897,79
1066	2975,14
1067	3027,22
1068	3069,7
1069	3097,55
1070	3069,58
1071	3059,75
1072	3029,56
1073	3071,1
1074	3067,59
1075	3032,37
1076	3006,27
1077	3012,47
1078	2989,19
1079	2988,48
1080	2948,93
1081	2943,43
1082	2925,99
1083	2924,7
1084	2884,33
1085	2848,52
1086	2863,85
1087	2825,35
1088	2814,58
1089	2756,07
1090	2753,73
1091	2715,23
1092	2713,82
1093	2690,77
1094	2667,6
1095	2654,96
1096	2640,21
1097	2641,97
1098	2597,97
1099	2569,53
1100	2532,78
1101	2531,49
1102	2508,91
1103	2476,61
1104	2469
1105	2444,08
1106	2420,2
1107	2417,74
1108	2390,83
1109	2358,06
1110	2337
1111	2367,54
1112	2318,27
1113	2286,79
1114	2287,49
1115	2257,42
1116	2254,02
1117	2211,66
1118	2194,22
1119	2179,59
1120	2175,38
1121	2162,63
1122	2147,06
1123	2110,9
1124	2107,16
1125	2100,84
1126	2083,05
1127	2058,94
1128	2027,81
1129	2011,9
1130	1996,56
1131	1988,37
1132	1971,87
1133	1958,41
1134	1915,93
1135	1896,86
1136	1768,01
1137	1655,67
1138	1558,07
1139	1514,3
1140	1475,91
1141	1520,15
1142	1488,55
1143	1464,44
1144	1485,74
1145	1522,14
1146	1503,3
1147	1516,05
1148	1526,7
1149	1561,81
1150	1551,28
1151	1573,51
1152	1584,16
1153	1573,16
1154	1575,39
1155	1558,53
1156	1545,78
1157	1520,73
1158	1526,82
1159	1527,64
1160	1529,63
1161	1515,7
1162	1539,11
1163	1519,91
1164	1509,62
1165	1496,74
1166	1519,21
1167	1472,28
1168	1454,85
1169	1460,11
1170	1419,62
1171	1430,97
1172	1409,79
1173	1403,36
1174	1381
1175	1385,92
1176	1359,12
1177	1367,9
1178	1368,95
1179	1382,88
1180	1354,09
1181	1354,09
1182	1366,14
1183	1375,85
1184	1345,08
1185	1339,11
1186	1313,01
1187	1339,23
1188	1310,9
1189	1333,73
1190	1309,97
1191	1317,81
1192	1292,41
1193	1280,48
1194	1282,12
1195	1297,68
1196	1259,53
1197	1251,69
1198	1249,35
1199	1243,5
1200	1228,4
1201	1230,98
1202	1204,88
1203	1218,57
1204	1206,87
1205	1200,9
1206	1176,91
1207	1185,57
1208	1147,89
1209	1140,98
1210	1106,22
1211	1074,16
1212	1065,85
1213	1031,56
1214	981,01
1215	989,32
1216	967,2
1217	953,62
1218	928,58
1219	931,74
1220	937,71
1221	948
1222	990,6
1223	984,52
1224	985,8
1225	991,42
1226	967,55
1227	933,84
1228	940,4
1229	926,35
1230	939,58
1231	933,03
1232	924,95
1233	896,63
1234	927,29
1235	899,2
1236	887,97
1237	890,31
1238	891,48
1239	889,14
1240	896,28
1241	882,47
1242	888,44
1243	894,99
1244	874,51
1245	880,01
1246	883,17
1247	880,83
1248	906,11
1249	886,1
1250	896,16
1251	903,42
1252	900,73
1253	892,77
1254	893,82
1255	883,41
1256	890,66
1257	881,18
1258	895,23
1259	880,25
1260	883,05
1261	862,69
1262	866,55
1263	851,57
1264	854,5
1265	838,7
1266	853,33
1267	872,52
1268	849,23
1269	809,09
1270	815,3
1271	834,25
1272	808,04
1273	819,04
1274	808,27
1275	804,3
1276	807,46
1277	807,46
1278	799,03
1279	804,88
1280	795,64
1281	791,66
1282	817,29
1283	793,41
1284	799,38
1285	771,76
1286	777,73
1287	768,13
1288	756,78
1289	755,96
1290	753,39
1291	752,69
1292	754,91
1293	738,88
1294	737,12
1295	733,03
1296	734,2
1297	726,47
1298	729,63
1299	730,57
1300	717,93
1301	720,39
1302	720,04
1303	724,95
1304	711,96
1305	722,61
1306	712,43
1307	710,44
1308	715,24
1309	686,8
1310	702,6
1311	699,09
1312	685,28
1313	675,57
1314	676,03
1315	656,02
1316	612,14
1317	583,12
1318	531,74
1319	467,49
1320	443,15
1321	430,75
1322	423,49
1323	421,15
1324	436,48
1325	425,01
1326	437,65
1327	424,31
1328	422,55
1329	436,36
1330	440,58
1331	453,45
1332	468,43
1333	489,38
1334	495,35
1335	518,75
1336	526,01
1337	530,8
1338	539,7
1339	546,72
1340	548,36
1341	553,27
1342	550,23
1343	544,03
1344	546,72
1345	548,59
1346	554,79
1347	544,96
1348	557,14
1349	541,8
1350	533,5
1351	551,05
1352	537,47
1353	541,8
1354	525,89
1355	527,64
1356	518,63
1357	526,36
1358	530,92
1359	530,22
1360	506,35
1361	525,07
1362	509,04
1363	521,21
1364	512,78
1365	506,58
1366	504,36
1367	497,1
1368	503,42
1369	494,41
1370	489,96
1371	498,86
1372	509,97
1373	485,4
1374	505,18
1375	490,66
1376	488,09
1377	487,04
1378	485,87
1379	467,14
1380	474,4
1381	466,32
1382	487,15
1383	476,97
1384	471
1385	458,83
1386	478,73
1387	480,6
1388	480,25
1389	469,01
1390	461,88
1391	456,02
1392	454,15
1393	459,77
1394	467,49
1395	456,73
1396	455,67
1397	445,73
1398	450,41
1399	448,3
1400	439,17
1401	433,55
1402	443,97
1403	445,96
1404	449,7
1405	429,46
1406	450,99
1407	441,4
1408	422,32
1409	410,73
1410	436,36
1411	443,85
1412	434,37
1413	429,11
1414	415,53
1415	442,1
1416	443,97
1417	427,12
1418	425,13
1419	420,1
1420	423,14
1421	427,24
1422	414,48
1423	416,35
1424	415,06
1425	411,91
1426	428,76
1427	432,27
1428	424,19
1429	396,57
1430	418,11
1431	406,52
1432	411,79
1433	411,44
1434	401,84
1435	411,91
1436	424,54
1437	399,73
1438	411,09
1439	402,66
1440	388,85
1441	421,03
1442	405,12
1443	418,93
1444	402,78
1445	392,71
1446	408,63
1447	408,16
1448	402,54
1449	407,11
1450	399,15
1451	394,94
1452	391,43
1453	385,34
1454	388,03
1455	380,19
1456	378,67
1457	383,23
1458	355,03
1459	371,65
1460	372,23
1461	388,62
1462	383,47
1463	375,51
1464	376,68
1465	375,98
1466	371,41
1467	366,73
1468	364,86
1469	365,56
1470	376,8
1471	366,15
1472	371,3
1473	373,64
1474	386,39
1475	366,97
1476	378,79
1477	374,69
1478	368,02
1479	367,55
1480	362,17
1481	359,48
1482	367,9
1483	360,06
1484	374,34
1485	374,22
1486	384,99
1487	359,95
1488	372,7
1489	367,08
1490	381,36
1491	368,84
1492	360,41
1493	361,47
1494	350,7
1495	361
1496	361
1497	372,23
1498	375,86
1499	377,27
1500	372,94
1501	366,73
1502	359,83
1503	356,32
1504	369,42
1505	361,12
1506	360,06
1507	359,01
1508	353,74
1509	366,38
1510	370,83
1511	364,28
1512	357,02
1513	359,59
1514	366,85
1515	365,33
1516	348,83
1517	355,38
1518	354,8
1519	363,46
1520	353,98
1521	359,59
1522	355,5
1523	370,71
1524	365,21
1525	370,95
1526	355,15
1527	354,68
1528	350,35
1529	347,66
1530	357,96
1531	341,69
1532	344,61
1533	366,73
1534	356,67
1535	359,71
1536	361,82
1537	359,59
1538	342,86
1539	349,18
1540	349,41
1541	347,19
1542	350,11
1543	356,55
1544	340,99
1545	354,44
1546	327,18
1547	353,86
1548	346,96
1549	361,82
1550	355,26
1551	359,24
1552	348,71
1553	319,22
1554	346,14
1555	346,49
1556	337,48
1557	352,81
1558	347,77
1559	344,15
1560	347,54
1561	344,26
1562	352,34
1563	347,66
1564	350,11
1565	342,98
1566	339,93
1567	339,93
1568	357,25
1569	336,54
1570	335,37
1571	344,73
1572	345,2
1573	341,34
1574	335,37
1575	343,8
1576	345,43
1577	334,78
1578	339,82
1579	342,27
1580	339,23
1581	356,55
1582	344,85
1583	326,94
1584	341,69
1585	327,29
1586	325,54
1587	332,56
1588	345,67
1589	333,15
1590	338,65
1591	323,32
1592	335,95
1593	345,08
1594	342,16
1595	336,42
1596	326,48
1597	324,84
1598	343,44
1599	339
1600	328,35
1601	337,59
1602	326,71
1603	339,93
1604	334,67
1605	325,66
1606	326,59
1607	348,94
1608	319,22
1609	347,07
1610	336,19
1611	335,25
1612	333,03
1613	318,4
1614	323,43
1615	317
1616	326,12
1617	327,41
1618	333,38
1619	334,2
1620	326,71
1621	326,83
1622	329,75
1623	326,71
1624	326,59
1625	319,57
1626	332,44
1627	331,27
1628	335,37
1629	324,37
1630	328,23
1631	322,85
1632	338,3
1633	334,55
1634	318,99
1635	327,18
1636	337,83
1637	316,06
1638	335,14
1639	329,05
1640	317,58
1641	317,7
1642	326,24
1643	325,07
1644	331,39
1645	313,6
1646	332,79
1647	325,42
1648	328,23
1649	333,73
1650	325,42
1651	327,29
1652	337,01
1653	340,17
1654	333,15
1655	324,6
1656	330,1
1657	337,59
1658	332,79
1659	333,38
1660	337,24
1661	321,68
1662	314,66
1663	319,1
1664	334,67
1665	323,9
1666	321,68
1667	323,43
1668	332,33
1669	328,7
1670	334,32
1671	331,16
1672	320,16
1673	319,69
1674	315,47
1675	334,2
1676	338,18
1677	332,56
1678	308,22
1679	330,69
1680	322,5
1681	323,67
1682	334,08
1683	313,25
1684	320,16
1685	316,53
1686	328,7
1687	317,7
1688	325,07
1689	321,79
1690	333,5
1691	317,82
1692	316,53
1693	320,62
1694	317,46
1695	327,76
1696	308,45
1697	327,65
1698	318,99
1699	330,45
1700	320,39
1701	314,3
1702	318,52
1703	322,03
1704	314,19
1705	326,36
1706	308,92
1707	317,11
1708	315,94
1709	304,36
1710	319,8
1711	324,02
1712	313,25
1713	326,01
1714	311,38
1715	310,56
1716	322,15
1717	323,2
1718	324,13
1719	307,17
1720	313,72
1721	324,6
1722	303,3
1723	316,65
1724	318,05
1725	309,16
1726	311,38
1727	310,91
1728	311,03
1729	322,61
1730	307,17
1731	317,46
1732	322,38
1733	308,1
1734	326,48
1735	308,57
1736	318,28
1737	327,29
1738	341,81
1739	317,93
1740	312,67
1741	304,47
1742	316,76
1743	325,07
1744	309,04
1745	317,46
1746	320,16
1747	305,41
1748	310,44
1749	317,7
1750	312,43
1751	317,11
1752	311,96
1753	313,72
1754	315,01
1755	317,11
1756	315,12
1757	320,86
1758	315,59
1759	318,17
1760	316,65
1761	313,02
1762	323,55
1763	312,78
1764	310,56
1765	313,6
1766	315,12
1767	316,18
1768	319,45
1769	309,04
1770	306,81
1771	307,17
1772	322,26
1773	317,93
1774	326,36
1775	302,02
1776	309,62
1777	320,16
1778	322,96
1779	315,24
1780	299,91
1781	325,77
1782	301,67
1783	301,2
1784	302,37
1785	312,08
1786	313,25
1787	306,23
1788	321,33
1789	325,31
1790	314,07
1791	317,11
1792	311,03
1793	300,61
1794	323,08
1795	306
1796	313,6
1797	314,42
1798	313,49
1799	330,34
1800	319,1
1801	321,33
1802	323,08
1803	300,5
1804	311,73
1805	298,74
1806	327,88
1807	313,95
1808	320,51
1809	314,89
1810	313,02
1811	321,91
1812	322,38
1813	315,71
1814	317,82
1815	313,02
1816	313,72
1817	310,68
1818	315,12
1819	328,82
1820	306,35
1821	305,06
1822	305,18
1823	309,97
1824	319,69
1825	312,55
1826	313,37
1827	302,84
1828	307,52
1829	317,23
1830	309,86
1831	322,15
1832	315,71
1833	322,03
1834	327,18
1835	312,78
1836	317
1837	323,9
1838	321,21
1839	316,06
1840	319,92
1841	320,51
1842	314,66
1843	317,82
1844	315,94
1845	317,93
1846	320,27
1847	312,08
1848	299,21
1849	302,6
1850	307,87
1851	323,78
1852	317,82
1853	310,68
1854	302,25
1855	308,22
1856	307,63
1857	321,68
1858	300,38
1859	304,47
1860	316,18
1861	314,07
1862	311,96
1863	304,94
1864	315,24
1865	304,24
1866	315,12
1867	299,09
1868	307,4
1869	321,44
1870	317,58
1871	321,21
1872	300,03
1873	316,18
1874	315,47
1875	312,67
1876	310,09
1877	308,22
1878	309,39
1879	326,24
1880	310,21
1881	315,59
1882	299,44
1883	318,4
1884	311,73
1885	326,94
1886	326,01
1887	319,45
1888	299,68
1889	312,9
1890	295
1891	307,75
1892	323,43
1893	318,99
1894	311,38
1895	313,84
1896	333,61
1897	307,75
1898	311,73
1899	308,22
1900	318,28
1901	299,56
1902	295,93
1903	309,97
1904	330,1
1905	323,43
1906	310,44
1907	296,4
1908	308,34
1909	299,79
1910	319,57
1911	299,56
1912	317,7
1913	319,8
1914	305,18
1915	309,97
1916	311,61
1917	319,22
1918	319,8
1919	317,46
1920	308,45
1921	316,29
1922	295,11
1923	333,73
1924	301,55
1925	324,02
1926	309,27
1927	303,89
1928	321,33
1929	316,88
1930	311,38
1931	324,72
1932	307,28
1933	326,59
1934	331,27
1935	311,5
1936	311,96
1937	305,18
1938	312,2
1939	304,01
1940	307,52
1941	297,69
1942	304,94
1943	325,07
1944	309,51
1945	313,37
1946	304,47
1947	301,08
1948	324,95
1949	307,75
1950	296,17
1951	320,27
1952	322,96
1953	314,66
1954	327,65
1955	307,52
1956	310,09
1957	314,3
1958	305,06
1959	322,15
1960	314,54
1961	314,77
1962	304,47
1963	306,11
1964	309,16
1965	310,09
1966	325,66
1967	315,24
1968	318,75
1969	310,09
1970	317,46
1971	317,35
1972	318,05
1973	313,6
1974	318,52
1975	312,2
1976	307,63
1977	293,94
1978	298,97
1979	305,88
1980	323,08
1981	295,7
1982	301,67
1983	311,61
1984	306,23
1985	305,41
1986	304,01
1987	314,3
1988	301,08
1989	308,45
1990	303,3
1991	321,21
1992	303,42
1993	311,73
1994	322,26
1995	304,12
1996	312,43
1997	308,22
1998	307,87
1999	310,79
2000	317,93
2001	316,76
2002	302,72
2003	318,75
2004	307,52
2005	313,37
2006	311,96
2007	296,52
2008	307,63
2009	308,57
2010	311,38
2011	315,94
2012	308,22
2013	304,01
2014	305,29
2015	325,07
2016	307,4
2017	323,2
2018	319,45
2019	318,99
2020	311,03
2021	303,77
2022	307,63
2023	311,03
2024	321,21
2025	303,66
2026	301,08
2027	312,78
2028	302,13
2029	306,58
2030	307,87
2031	304,83
2032	309,97
2033	306,93
2034	300,38
2035	315,12
2036	305,76
2037	306,11
2038	302,95
2039	301,08
2040	297,45
2041	313,25
2042	311,03
2043	315,94
2044	304,12
2045	318,52
2046	318,52
2047	318,52
