Data from Absorbance__2__14-40-07-235.txt Node

Date: Wed Apr 28 14:40:07 CEST 2021
User: thoma
Spectrometer: FLMS05507
Trigger mode: 0
Integration Time (sec): 6,930000E-3
Scans to average: 200
Electric dark correction enabled: true
Nonlinearity correction enabled: false
Boxcar width: 0
XAxis mode: Wavelengths
Number of Pixels in Spectrum: 2048
>>>>>Begin Spectral Data<<<<<
188,96	0,24
189,424	0,24
189,887	0,24
190,351	0,19
190,815	0,08
191,279	-0,52
191,742	-0
192,206	-0,93
192,669	-0,3
193,133	-0
193,596	2,74
194,06	-0,9
194,523	-0,33
194,987	-0
195,45	-0
195,913	-0,71
196,376	-0,2
196,84	-0,25
197,303	-0,03
197,766	0,8
198,229	-0,74
198,692	0,57
199,155	0,98
199,618	1,81
200,081	1,83
200,543	1,85
201,006	1,87
201,469	1,88
201,932	1,9
202,394	1,9
202,857	1,91
203,32	1,93
203,782	1,93
204,245	1,93
204,707	1,94
205,169	1,95
205,632	1,97
206,094	1,96
206,556	1,97
207,019	1,99
207,481	2
207,943	2
208,405	2
208,867	2,01
209,329	2
209,791	2
210,253	2,01
210,715	2
211,177	1,99
211,639	1,97
212,1	1,97
212,562	1,95
213,024	1,93
213,485	1,9
213,947	1,87
214,408	1,84
214,87	1,8
215,331	1,75
215,793	1,71
216,254	1,67
216,715	1,62
217,177	1,56
217,638	1,51
218,099	1,45
218,56	1,4
219,021	1,34
219,482	1,28
219,944	1,23
220,404	1,18
220,865	1,13
221,326	1,08
221,787	1,04
222,248	1
222,709	0,96
223,169	0,92
223,63	0,89
224,091	0,86
224,551	0,83
225,012	0,81
225,472	0,78
225,933	0,76
226,393	0,74
226,854	0,73
227,314	0,71
227,774	0,7
228,234	0,69
228,695	0,68
229,155	0,67
229,615	0,66
230,075	0,66
230,535	0,65
230,995	0,65
231,455	0,64
231,915	0,64
232,375	0,64
232,834	0,63
233,294	0,63
233,754	0,63
234,214	0,63
234,673	0,63
235,133	0,63
235,592	0,63
236,052	0,62
236,511	0,62
236,971	0,62
237,43	0,62
237,889	0,62
238,349	0,62
238,808	0,62
239,267	0,62
239,726	0,62
240,185	0,62
240,644	0,62
241,103	0,61
241,562	0,61
242,021	0,61
242,48	0,61
242,939	0,61
243,398	0,6
243,857	0,6
244,315	0,6
244,774	0,6
245,233	0,59
245,691	0,59
246,15	0,59
246,608	0,58
247,067	0,58
247,525	0,58
247,983	0,57
248,442	0,57
248,9	0,56
249,358	0,56
249,816	0,56
250,274	0,55
250,733	0,55
251,191	0,54
251,649	0,54
252,107	0,53
252,564	0,53
253,022	0,52
253,48	0,52
253,938	0,51
254,396	0,51
254,853	0,5
255,311	0,5
255,769	0,49
256,226	0,48
256,684	0,48
257,141	0,47
257,599	0,47
258,056	0,46
258,513	0,46
258,971	0,45
259,428	0,45
259,885	0,44
260,342	0,44
260,799	0,43
261,256	0,43
261,714	0,42
262,171	0,42
262,627	0,41
263,084	0,41
263,541	0,4
263,998	0,4
264,455	0,39
264,912	0,39
265,368	0,38
265,825	0,38
266,281	0,37
266,738	0,37
267,194	0,37
267,651	0,36
268,107	0,36
268,564	0,35
269,02	0,35
269,476	0,35
269,933	0,34
270,389	0,34
270,845	0,34
271,301	0,34
271,757	0,33
272,213	0,33
272,669	0,33
273,125	0,32
273,581	0,32
274,037	0,32
274,492	0,32
274,948	0,31
275,404	0,31
275,86	0,31
276,315	0,31
276,771	0,31
277,226	0,31
277,682	0,3
278,137	0,3
278,593	0,3
279,048	0,3
279,503	0,3
279,958	0,29
280,414	0,29
280,869	0,29
281,324	0,29
281,779	0,29
282,234	0,28
282,689	0,28
283,144	0,28
283,599	0,28
284,054	0,28
284,508	0,28
284,963	0,27
285,418	0,27
285,873	0,27
286,327	0,27
286,782	0,27
287,236	0,27
287,691	0,27
288,145	0,26
288,6	0,26
289,054	0,26
289,508	0,26
289,963	0,26
290,417	0,26
290,871	0,26
291,325	0,25
291,779	0,25
292,233	0,25
292,687	0,25
293,141	0,25
293,595	0,25
294,049	0,25
294,503	0,24
294,957	0,24
295,41	0,24
295,864	0,24
296,318	0,24
296,771	0,24
297,225	0,24
297,678	0,24
298,132	0,23
298,585	0,23
299,039	0,23
299,492	0,23
299,945	0,23
300,398	0,23
300,852	0,23
301,305	0,23
301,758	0,23
302,211	0,23
302,664	0,23
303,117	0,22
303,57	0,22
304,023	0,22
304,476	0,22
304,928	0,22
305,381	0,22
305,834	0,22
306,286	0,22
306,739	0,22
307,192	0,22
307,644	0,22
308,097	0,22
308,549	0,22
309,001	0,22
309,454	0,22
309,906	0,21
310,358	0,21
310,81	0,21
311,263	0,21
311,715	0,21
312,167	0,21
312,619	0,21
313,071	0,21
313,523	0,21
313,975	0,21
314,426	0,21
314,878	0,21
315,33	0,21
315,782	0,21
316,233	0,21
316,685	0,21
317,136	0,21
317,588	0,21
318,039	0,2
318,491	0,2
318,942	0,19
319,393	0,18
319,845	0,19
320,296	0,19
320,747	0,2
321,198	0,2
321,649	0,2
322,101	0,2
322,552	0,2
323,003	0,2
323,453	0,2
323,904	0,2
324,355	0,2
324,806	0,19
325,257	0,19
325,707	0,19
326,158	0,19
326,609	0,19
327,059	0,19
327,51	0,19
327,96	0,19
328,411	0,19
328,861	0,19
329,311	0,19
329,762	0,18
330,212	0,18
330,662	0,18
331,112	0,18
331,562	0,18
332,012	0,18
332,462	0,18
332,912	0,18
333,362	0,18
333,812	0,18
334,262	0,18
334,712	0,18
335,161	0,18
335,611	0,18
336,061	0,18
336,51	0,18
336,96	0,18
337,409	0,18
337,859	0,17
338,308	0,17
338,758	0,17
339,207	0,17
339,656	0,17
340,105	0,17
340,555	0,17
341,004	0,17
341,453	0,17
341,902	0,17
342,351	0,17
342,8	0,17
343,249	0,17
343,698	0,17
344,146	0,17
344,595	0,17
345,044	0,17
345,493	0,17
345,941	0,16
346,39	0,17
346,838	0,16
347,287	0,16
347,735	0,16
348,184	0,16
348,632	0,16
349,08	0,16
349,529	0,16
349,977	0,16
350,425	0,16
350,873	0,16
351,321	0,16
351,769	0,16
352,217	0,16
352,665	0,16
353,113	0,16
353,561	0,16
354,009	0,16
354,456	0,16
354,904	0,16
355,352	0,16
355,799	0,16
356,247	0,16
356,694	0,16
357,142	0,16
357,589	0,16
358,037	0,16
358,484	0,16
358,931	0,16
359,379	0,16
359,826	0,16
360,273	0,16
360,72	0,16
361,167	0,16
361,614	0,16
362,061	0,16
362,508	0,16
362,955	0,16
363,402	0,16
363,848	0,16
364,295	0,16
364,742	0,16
365,188	0,16
365,635	0,16
366,082	0,16
366,528	0,16
366,975	0,16
367,421	0,16
367,867	0,16
368,314	0,15
368,76	0,16
369,206	0,15
369,652	0,16
370,098	0,15
370,545	0,15
370,991	0,15
371,437	0,15
371,882	0,15
372,328	0,15
372,774	0,15
373,22	0,15
373,666	0,15
374,111	0,15
374,557	0,15
375,003	0,15
375,448	0,15
375,894	0,15
376,339	0,15
376,785	0,15
377,23	0,15
377,675	0,15
378,121	0,15
378,566	0,15
379,011	0,15
379,456	0,15
379,901	0,15
380,346	0,15
380,791	0,15
381,236	0,15
381,681	0,15
382,126	0,15
382,571	0,15
383,016	0,15
383,461	0,15
383,905	0,15
384,35	0,15
384,794	0,15
385,239	0,15
385,683	0,15
386,128	0,15
386,572	0,15
387,017	0,15
387,461	0,15
387,905	0,15
388,349	0,15
388,794	0,15
389,238	0,15
389,682	0,15
390,126	0,15
390,57	0,15
391,014	0,15
391,457	0,15
391,901	0,15
392,345	0,15
392,789	0,15
393,233	0,15
393,676	0,15
394,12	0,15
394,563	0,15
395,007	0,15
395,45	0,15
395,894	0,15
396,337	0,15
396,78	0,15
397,224	0,15
397,667	0,15
398,11	0,15
398,553	0,15
398,996	0,15
399,439	0,15
399,882	0,15
400,325	0,15
400,768	0,15
401,211	0,15
401,654	0,15
402,096	0,15
402,539	0,15
402,982	0,15
403,424	0,15
403,867	0,15
404,309	0,15
404,752	0,15
405,194	0,15
405,637	0,15
406,079	0,15
406,521	0,15
406,963	0,15
407,406	0,15
407,848	0,15
408,29	0,15
408,732	0,15
409,174	0,15
409,616	0,15
410,058	0,15
410,499	0,15
410,941	0,15
411,383	0,15
411,825	0,15
412,266	0,15
412,708	0,15
413,15	0,15
413,591	0,15
414,033	0,15
414,474	0,15
414,915	0,15
415,357	0,15
415,798	0,15
416,239	0,15
416,68	0,15
417,121	0,15
417,563	0,15
418,004	0,15
418,445	0,15
418,885	0,15
419,326	0,15
419,767	0,15
420,208	0,15
420,649	0,15
421,089	0,15
421,53	0,15
421,971	0,15
422,411	0,15
422,852	0,15
423,292	0,15
423,733	0,15
424,173	0,15
424,613	0,15
425,054	0,15
425,494	0,15
425,934	0,15
426,374	0,15
426,814	0,15
427,254	0,15
427,694	0,15
428,134	0,15
428,574	0,15
429,014	0,15
429,454	0,15
429,893	0,15
430,333	0,15
430,773	0,15
431,212	0,15
431,652	0,15
432,091	0,15
432,531	0,15
432,97	0,15
433,41	0,15
433,849	0,15
434,288	0,15
434,727	0,15
435,167	0,15
435,606	0,15
436,045	0,15
436,484	0,15
436,923	0,15
437,362	0,15
437,801	0,15
438,239	0,15
438,678	0,15
439,117	0,15
439,556	0,15
439,994	0,15
440,433	0,15
440,871	0,15
441,31	0,15
441,748	0,15
442,187	0,15
442,625	0,15
443,063	0,15
443,502	0,15
443,94	0,15
444,378	0,15
444,816	0,15
445,254	0,15
445,692	0,15
446,13	0,15
446,568	0,15
447,006	0,15
447,444	0,15
447,881	0,15
448,319	0,15
448,757	0,15
449,194	0,15
449,632	0,15
450,07	0,15
450,507	0,15
450,944	0,15
451,382	0,15
451,819	0,15
452,256	0,15
452,694	0,15
453,131	0,15
453,568	0,15
454,005	0,15
454,442	0,15
454,879	0,15
455,316	0,15
455,753	0,15
456,19	0,15
456,627	0,15
457,063	0,15
457,5	0,15
457,937	0,15
458,373	0,15
458,81	0,15
459,246	0,14
459,683	0,15
460,119	0,15
460,556	0,15
460,992	0,15
461,428	0,14
461,864	0,14
462,301	0,14
462,737	0,14
463,173	0,15
463,609	0,15
464,045	0,15
464,481	0,15
464,917	0,15
465,352	0,15
465,788	0,15
466,224	0,15
466,66	0,15
467,095	0,15
467,531	0,15
467,966	0,15
468,402	0,15
468,837	0,15
469,273	0,15
469,708	0,15
470,143	0,15
470,578	0,15
471,014	0,15
471,449	0,15
471,884	0,15
472,319	0,15
472,754	0,15
473,189	0,15
473,624	0,15
474,059	0,15
474,493	0,15
474,928	0,15
475,363	0,15
475,797	0,15
476,232	0,15
476,667	0,15
477,101	0,15
477,536	0,15
477,97	0,15
478,404	0,15
478,839	0,15
479,273	0,15
479,707	0,15
480,141	0,15
480,575	0,15
481,009	0,15
481,444	0,15
481,877	0,15
482,311	0,15
482,745	0,15
483,179	0,15
483,613	0,15
484,047	0,15
484,48	0,15
484,914	0,15
485,347	0,15
485,781	0,15
486,214	0,15
486,648	0,15
487,081	0,15
487,515	0,14
487,948	0,15
488,381	0,14
488,814	0,15
489,247	0,15
489,68	0,15
490,113	0,15
490,546	0,15
490,979	0,15
491,412	0,14
491,845	0,14
492,278	0,14
492,711	0,14
493,143	0,14
493,576	0,14
494,009	0,14
494,441	0,14
494,874	0,14
495,306	0,14
495,738	0,14
496,171	0,14
496,603	0,14
497,035	0,14
497,467	0,14
497,9	0,14
498,332	0,14
498,764	0,14
499,196	0,14
499,628	0,14
500,06	0,14
500,491	0,14
500,923	0,14
501,355	0,14
501,787	0,14
502,218	0,14
502,65	0,14
503,081	0,14
503,513	0,14
503,944	0,14
504,376	0,14
504,807	0,14
505,238	0,14
505,67	0,14
506,101	0,14
506,532	0,14
506,963	0,14
507,394	0,14
507,825	0,14
508,256	0,14
508,687	0,14
509,118	0,14
509,549	0,14
509,979	0,14
510,41	0,14
510,841	0,14
511,271	0,14
511,702	0,14
512,132	0,14
512,563	0,14
512,993	0,14
513,424	0,14
513,854	0,14
514,284	0,14
514,714	0,14
515,145	0,14
515,575	0,14
516,005	0,14
516,435	0,14
516,865	0,14
517,295	0,14
517,724	0,14
518,154	0,14
518,584	0,14
519,014	0,14
519,443	0,14
519,873	0,14
520,303	0,14
520,732	0,14
521,161	0,14
521,591	0,14
522,02	0,14
522,45	0,14
522,879	0,14
523,308	0,14
523,737	0,14
524,166	0,14
524,595	0,14
525,024	0,14
525,453	0,13
525,882	0,13
526,311	0,13
526,74	0,13
527,169	0,13
527,597	0,13
528,026	0,13
528,455	0,13
528,883	0,13
529,312	0,13
529,74	0,13
530,168	0,13
530,597	0,13
531,025	0,13
531,453	0,13
531,882	0,13
532,31	0,13
532,738	0,13
533,166	0,13
533,594	0,13
534,022	0,13
534,45	0,13
534,878	0,13
535,305	0,13
535,733	0,13
536,161	0,13
536,588	0,13
537,016	0,13
537,444	0,13
537,871	0,13
538,299	0,13
538,726	0,13
539,153	0,13
539,581	0,13
540,008	0,13
540,435	0,13
540,862	0,13
541,289	0,13
541,716	0,13
542,143	0,13
542,57	0,13
542,997	0,13
543,424	0,13
543,851	0,13
544,277	0,13
544,704	0,13
545,131	0,13
545,557	0,13
545,984	0,13
546,41	0,13
546,837	0,13
547,263	0,13
547,69	0,13
548,116	0,13
548,542	0,13
548,968	0,13
549,394	0,13
549,82	0,12
550,246	0,13
550,672	0,13
551,098	0,13
551,524	0,13
551,95	0,13
552,376	0,13
552,802	0,13
553,227	0,13
553,653	0,12
554,078	0,12
554,504	0,13
554,929	0,13
555,355	0,13
555,78	0,13
556,206	0,13
556,631	0,12
557,056	0,12
557,481	0,13
557,906	0,12
558,331	0,12
558,756	0,12
559,181	0,12
559,606	0,12
560,031	0,12
560,456	0,12
560,881	0,12
561,305	0,12
561,73	0,12
562,155	0,12
562,579	0,12
563,004	0,12
563,428	0,12
563,853	0,12
564,277	0,12
564,701	0,12
565,126	0,12
565,55	0,12
565,974	0,12
566,398	0,12
566,822	0,12
567,246	0,12
567,67	0,12
568,094	0,12
568,518	0,12
568,941	0,12
569,365	0,12
569,789	0,12
570,213	0,12
570,636	0,12
571,06	0,12
571,483	0,12
571,907	0,12
572,33	0,12
572,753	0,12
573,177	0,12
573,6	0,12
574,023	0,12
574,446	0,12
574,869	0,12
575,292	0,12
575,715	0,12
576,138	0,12
576,561	0,12
576,984	0,12
577,407	0,12
577,829	0,12
578,252	0,12
578,675	0,12
579,097	0,12
579,52	0,12
579,942	0,12
580,364	0,12
580,787	0,12
581,209	0,12
581,631	0,12
582,054	0,12
582,476	0,12
582,898	0,12
583,32	0,12
583,742	0,12
584,164	0,12
584,586	0,12
585,008	0,12
585,429	0,12
585,851	0,12
586,273	0,12
586,694	0,12
587,116	0,12
587,538	0,12
587,959	0,12
588,38	0,12
588,802	0,12
589,223	0,12
589,644	0,12
590,066	0,12
590,487	0,12
590,908	0,12
591,329	0,12
591,75	0,12
592,171	0,12
592,592	0,12
593,013	0,12
593,434	0,12
593,854	0,12
594,275	0,12
594,696	0,12
595,116	0,12
595,537	0,12
595,957	0,12
596,378	0,12
596,798	0,12
597,218	0,12
597,639	0,12
598,059	0,12
598,479	0,12
598,899	0,12
599,319	0,12
599,739	0,12
600,159	0,12
600,579	0,12
600,999	0,11
601,419	0,11
601,839	0,11
602,259	0,11
602,678	0,11
603,098	0,11
603,517	0,11
603,937	0,11
604,356	0,11
604,776	0,11
605,195	0,11
605,614	0,11
606,034	0,11
606,453	0,11
606,872	0,11
607,291	0,11
607,71	0,11
608,129	0,11
608,548	0,11
608,967	0,11
609,386	0,11
609,805	0,11
610,223	0,11
610,642	0,11
611,061	0,11
611,479	0,11
611,898	0,11
612,316	0,11
612,735	0,11
613,153	0,11
613,571	0,11
613,99	0,11
614,408	0,11
614,826	0,11
615,244	0,11
615,662	0,11
616,08	0,11
616,498	0,11
616,916	0,11
617,334	0,11
617,752	0,11
618,169	0,11
618,587	0,11
619,005	0,11
619,422	0,11
619,84	0,11
620,257	0,11
620,675	0,11
621,092	0,11
621,509	0,11
621,927	0,11
622,344	0,11
622,761	0,11
623,178	0,11
623,595	0,11
624,012	0,11
624,429	0,11
624,846	0,11
625,263	0,11
625,68	0,11
626,097	0,11
626,513	0,11
626,93	0,11
627,346	0,11
627,763	0,11
628,179	0,11
628,596	0,11
629,012	0,11
629,429	0,11
629,845	0,11
630,261	0,11
630,677	0,11
631,093	0,11
631,509	0,11
631,925	0,11
632,341	0,11
632,757	0,11
633,173	0,11
633,589	0,11
634,005	0,11
634,42	0,11
634,836	0,11
635,252	0,11
635,667	0,11
636,083	0,11
636,498	0,11
636,913	0,11
637,329	0,11
637,744	0,11
638,159	0,11
638,574	0,11
638,99	0,11
639,405	0,11
639,82	0,11
640,235	0,11
640,65	0,11
641,064	0,11
641,479	0,11
641,894	0,11
642,309	0,11
642,723	0,11
643,138	0,11
643,552	0,11
643,967	0,11
644,381	0,11
644,796	0,11
645,21	0,11
645,624	0,11
646,038	0,11
646,453	0,11
646,867	0,11
647,281	0,11
647,695	0,11
648,109	0,11
648,523	0,11
648,936	0,11
649,35	0,11
649,764	0,11
650,178	0,11
650,591	0,11
651,005	0,11
651,418	0,11
651,832	0,11
652,245	0,11
652,659	0,11
653,072	0,11
653,485	0,11
653,898	0,11
654,312	0,11
654,725	0,11
655,138	0,11
655,551	0,11
655,964	0,11
656,377	0,11
656,789	0,1
657,202	0,1
657,615	0,1
658,028	0,11
658,44	0,11
658,853	0,11
659,265	0,11
659,678	0,1
660,09	0,1
660,503	0,1
660,915	0,1
661,327	0,1
661,739	0,1
662,152	0,1
662,564	0,1
662,976	0,1
663,388	0,1
663,8	0,1
664,211	0,1
664,623	0,1
665,035	0,1
665,447	0,1
665,858	0,1
666,27	0,1
666,682	0,1
667,093	0,1
667,505	0,1
667,916	0,1
668,327	0,1
668,739	0,1
669,15	0,1
669,561	0,1
669,972	0,1
670,383	0,1
670,794	0,1
671,205	0,1
671,616	0,1
672,027	0,1
672,438	0,1
672,849	0,1
673,259	0,1
673,67	0,1
674,08	0,1
674,491	0,1
674,901	0,1
675,312	0,1
675,722	0,1
676,133	0,1
676,543	0,1
676,953	0,1
677,363	0,1
677,773	0,1
678,183	0,1
678,593	0,1
679,003	0,1
679,413	0,1
679,823	0,1
680,233	0,1
680,643	0,1
681,052	0,1
681,462	0,1
681,872	0,1
682,281	0,1
682,691	0,1
683,1	0,1
683,509	0,1
683,919	0,1
684,328	0,1
684,737	0,1
685,146	0,1
685,555	0,1
685,964	0,1
686,373	0,1
686,782	0,1
687,191	0,1
687,6	0,1
688,009	0,1
688,417	0,1
688,826	0,1
689,235	0,1
689,643	0,1
690,052	0,1
690,46	0,1
690,869	0,1
691,277	0,1
691,685	0,1
692,093	0,1
692,502	0,1
692,91	0,1
693,318	0,1
693,726	0,1
694,134	0,1
694,542	0,1
694,949	0,1
695,357	0,1
695,765	0,1
696,173	0,1
696,58	0,1
696,988	0,1
697,395	0,1
697,803	0,1
698,21	0,1
698,618	0,1
699,025	0,1
699,432	0,1
699,839	0,1
700,247	0,1
700,654	0,1
701,061	0,1
701,468	0,1
701,875	0,1
702,281	0,1
702,688	0,1
703,095	0,1
703,502	0,1
703,908	0,1
704,315	0,1
704,722	0,1
705,128	0,1
705,534	0,1
705,941	0,1
706,347	0,1
706,753	0,1
707,16	0,1
707,566	0,1
707,972	0,1
708,378	0,1
708,784	0,1
709,19	0,1
709,596	0,1
710,002	0,1
710,407	0,1
710,813	0,1
711,219	0,1
711,625	0,1
712,03	0,1
712,436	0,1
712,841	0,1
713,246	0,1
713,652	0,1
714,057	0,1
714,462	0,1
714,868	0,1
715,273	0,1
715,678	0,1
716,083	0,1
716,488	0,1
716,893	0,1
717,297	0,1
717,702	0,1
718,107	0,1
718,512	0,1
718,916	0,1
719,321	0,1
719,725	0,1
720,13	0,1
720,534	0,1
720,939	0,1
721,343	0,1
721,747	0,1
722,151	0,1
722,556	0,1
722,96	0,1
723,364	0,1
723,768	0,1
724,172	0,1
724,576	0,1
724,979	0,1
725,383	0,1
725,787	0,1
726,19	0,1
726,594	0,1
726,998	0,1
727,401	0,1
727,805	0,1
728,208	0,1
728,611	0,1
729,014	0,1
729,418	0,1
729,821	0,1
730,224	0,1
730,627	0,1
731,03	0,1
731,433	0,1
731,836	0,1
732,239	0,1
732,641	0,1
733,044	0,1
733,447	0,1
733,849	0,1
734,252	0,1
734,654	0,1
735,057	0,1
735,459	0,1
735,862	0,1
736,264	0,1
736,666	0,1
737,068	0,1
737,47	0,1
737,872	0,1
738,274	0,1
738,676	0,1
739,078	0,1
739,48	0,1
739,882	0,1
740,284	0,1
740,685	0,1
741,087	0,1
741,488	0,1
741,89	0,1
742,291	0,1
742,693	0,1
743,094	0,1
743,495	0,1
743,897	0,1
744,298	0,1
744,699	0,1
745,1	0,1
745,501	0,1
745,902	0,1
746,303	0,1
746,704	0,1
747,105	0,1
747,505	0,1
747,906	0,1
748,307	0,1
748,707	0,1
749,108	0,1
749,508	0,1
749,908	0,1
750,309	0,1
750,709	0,1
751,109	0,1
751,51	0,1
751,91	0,1
752,31	0,1
752,71	0,1
753,11	0,1
753,51	0,1
753,909	0,1
754,309	0,1
754,709	0,1
755,109	0,1
755,508	0,1
755,908	0,1
756,307	0,1
756,707	0,1
757,106	0,1
757,505	0,1
757,905	0,1
758,304	0,1
758,703	0,1
759,102	0,1
759,501	0,1
759,9	0,1
760,299	0,1
760,698	0,1
761,097	0,1
761,496	0,1
761,895	0,1
762,293	0,1
762,692	0,11
763,09	0,11
763,489	0,1
763,887	0,1
764,286	0,1
764,684	0,1
765,082	0,1
765,481	0,1
765,879	0,1
766,277	0,1
766,675	0,1
767,073	0,1
767,471	0,1
767,869	0,1
768,267	0,1
768,664	0,1
769,062	0,1
769,46	0,1
769,857	0,1
770,255	0,1
770,653	0,1
771,05	0,1
771,447	0,1
771,845	0,1
772,242	0,1
772,639	0,1
773,036	0,1
773,433	0,1
773,831	0,1
774,228	0,1
774,624	0,1
775,021	0,1
775,418	0,1
775,815	0,1
776,212	0,1
776,608	0,1
777,005	0,1
777,401	0,1
777,798	0,1
778,194	0,1
778,591	0,1
778,987	0,1
779,383	0,1
779,78	0,1
780,176	0,1
780,572	0,1
780,968	0,1
781,364	0,1
781,76	0,1
782,156	0,1
782,551	0,1
782,947	0,1
783,343	0,1
783,739	0,1
784,134	0,1
784,53	0,1
784,925	0,1
785,321	0,1
785,716	0,1
786,111	0,1
786,507	0,1
786,902	0,1
787,297	0,1
787,692	0,1
788,087	0,1
788,482	0,1
788,877	0,1
789,272	0,1
789,667	0,1
790,061	0,1
790,456	0,1
790,851	0,1
791,245	0,1
791,64	0,1
792,034	0,1
792,429	0,1
792,823	0,1
793,217	0,1
793,612	0,1
794,006	0,1
794,4	0,1
794,794	0,1
795,188	0,1
795,582	0,1
795,976	0,1
796,37	0,1
796,763	0,1
797,157	0,1
797,551	0,1
797,944	0,1
798,338	0,1
798,731	0,1
799,125	0,1
799,518	0,1
799,912	0,1
800,305	0,1
800,698	0,1
801,091	0,1
801,484	0,1
801,877	0,1
802,27	0,1
802,663	0,1
803,056	0,1
803,449	0,1
803,842	0,1
804,235	0,1
804,627	0,1
805,02	0,1
805,412	0,1
805,805	0,1
806,197	0,1
806,59	0,1
806,982	0,1
807,374	0,1
807,766	0,1
808,159	0,1
808,551	0,1
808,943	0,1
809,335	0,1
809,727	0,1
810,118	0,1
810,51	0,1
810,902	0,1
811,294	0,1
811,685	0,1
812,077	0,1
812,468	0,1
812,86	0,1
813,251	0,1
813,643	0,1
814,034	0,1
814,425	0,1
814,816	0,1
815,207	0,1
815,598	0,1
815,989	0,1
816,38	0,1
816,771	0,1
817,162	0,1
817,553	0,1
817,944	0,1
818,334	0,1
818,725	0,1
819,115	0,1
819,506	0,1
819,896	0,1
820,287	0,1
820,677	0,1
821,067	0,1
821,457	0,1
821,848	0,1
822,238	0,1
822,628	0,11
823,018	0,1
823,408	0,1
823,797	0,1
824,187	0,1
824,577	0,1
824,967	0,1
825,356	0,1
825,746	0,1
826,135	0,1
826,525	0,1
826,914	0,1
827,304	0,11
827,693	0,1
828,082	0,11
828,471	0,1
828,86	0,1
829,249	0,1
829,638	0,1
830,027	0,1
830,416	0,1
830,805	0,1
831,194	0,1
831,582	0,1
831,971	0,1
832,36	0,1
832,748	0,1
833,137	0,1
833,525	0,1
833,914	0,1
834,302	0,11
834,69	0,1
835,078	0,1
835,466	0,1
835,854	0,1
836,243	0,1
836,63	0,1
837,018	0,11
837,406	0,11
837,794	0,1
838,182	0,1
838,569	0,1
838,957	0,1
839,345	0,1
839,732	0,1
840,12	0,1
840,507	0,1
840,894	0,1
841,282	0,1
841,669	0,1
842,056	0,1
842,443	0,1
842,83	0,1
843,217	0,1
843,604	0,1
843,991	0,1
844,378	0,1
844,764	0,1
845,151	0,1
845,538	0,1
845,924	0,1
846,311	0,1
846,697	0,1
847,084	0,1
847,47	0,1
847,856	0,1
848,242	0,1
848,629	0,1
849,015	0,1
849,401	0,1
849,787	0,1
850,173	0,1
850,559	0,1
850,944	0,1
851,33	0,1
851,716	0,1
852,102	0,1
852,487	0,1
852,873	0,1
853,258	0,1
853,644	0,1
854,029	0,1
854,414	0,1
854,799	0,1
855,185	0,1
855,57	0,1
855,955	0,1
856,34	0,1
856,725	0,1
857,11	0,1
857,495	0,1
857,879	0,1
858,264	0,1
858,649	0,1
859,033	0,1
859,418	0,1
859,802	0,1
860,187	0,1
860,571	0,1
860,955	0,1
861,34	0,1
861,724	0,1
862,108	0,1
862,492	0,1
862,876	0,1
863,26	0,1
863,644	0,1
864,028	0,1
864,412	0,1
864,795	0,1
865,179	0,1
865,563	0,1
865,946	0,1
866,33	0,1
866,713	0,1
867,097	0,1
867,48	0,1
867,863	0,1
868,246	0,1
868,629	0,1
869,013	0,1
869,396	0,1
869,779	0,1
870,161	0,1
870,544	0,1
870,927	0,1
871,31	0,1
871,693	0,1
872,075	0,1
872,458	0,1
872,84	0,1
873,223	0,1
873,605	0,1
873,987	0,09
874,37	0,1
874,752	0,1
875,134	0,1
875,516	0,1
875,898	0,1
876,28	0,1
876,662	0,1
877,044	0,1
877,426	0,1
877,807	0,1
878,189	0,09
878,571	0,1
878,952	0,1
879,334	0,1
879,715	0,1
880,097	0,1
880,478	0,1
880,859	0,1
881,24	0,1
881,622	0,1
882,003	0,1
882,384	0,1
882,765	0,1
883,146	0,1
883,526	0,1
883,907	0,11
884,288	0,1
884,669	0,11
885,049	0,11
885,43	0,11
885,81	0,11
886,191	0,11
886,571	0,11
886,952	0,11
887,332	0,11
887,712	0,11
888,092	0,11
888,472	0,11
888,852	0,11
889,232	0,11
889,612	0,11
889,992	0,11
890,372	0,11
890,752	0,11
891,131	0,11
891,511	0,11
891,89	0,12
892,27	0,12
892,649	0,12
893,029	0,12
893,408	0,11
893,787	0,11
894,167	0,11
894,546	0,11
894,925	0,11
895,304	0,11
895,683	0,11
896,062	0,11
896,441	0,11
896,819	0,11
897,198	0,11
897,577	0,11
897,955	0,11
898,334	0,11
898,712	0,12
899,091	0,12
899,469	0,12
899,848	0,12
900,226	0,12
900,604	0,12
900,982	0,12
901,36	0,12
901,738	0,13
902,116	0,13
902,494	0,13
902,872	0,13
903,25	0,13
903,628	0,13
904,005	0,13
904,383	0,14
904,76	0,14
905,138	0,14
905,515	0,14
905,893	0,14
906,27	0,14
906,647	0,15
907,024	0,15
907,402	0,15
907,779	0,15
908,156	0,15
908,533	0,15
908,91	0,16
909,286	0,16
909,663	0,16
910,04	0,16
910,417	0,16
910,793	0,16
911,17	0,17
911,546	0,17
911,923	0,17
912,299	0,17
912,675	0,17
913,051	0,18
913,428	0,18
913,804	0,18
914,18	0,18
914,556	0,18
914,932	0,18
915,308	0,18
915,683	0,19
916,059	0,19
916,435	0,19
916,811	0,19
917,186	0,2
917,562	0,2
917,937	0,2
918,313	0,2
918,688	0,2
919,063	0,2
919,438	0,21
919,814	0,21
920,189	0,21
920,564	0,21
920,939	0,21
921,314	0,21
921,689	0,22
922,063	0,22
922,438	0,22
922,813	0,22
923,187	0,22
923,562	0,22
923,936	0,23
924,311	0,23
924,685	0,23
925,06	0,23
925,434	0,23
925,808	0,24
926,182	0,24
926,556	0,24
926,93	0,24
927,304	0,25
927,678	0,25
928,052	0,25
928,426	0,25
928,8	0,25
929,173	0,25
929,547	0,26
929,92	0,26
930,294	0,26
930,667	0,26
931,041	0,26
931,414	0,26
931,787	0,27
932,161	0,27
932,534	0,27
932,907	0,27
933,28	0,27
933,653	0,28
934,026	0,28
934,398	0,28
934,771	0,28
935,144	0,28
935,517	0,28
935,889	0,28
936,262	0,28
936,634	0,29
937,007	0,29
937,379	0,29
937,751	0,29
938,123	0,3
938,496	0,3
938,868	0,3
939,24	0,3
939,612	0,3
939,984	0,3
940,355	0,3
940,727	0,3
941,099	0,31
941,471	0,31
941,842	0,31
942,214	0,31
942,585	0,31
942,957	0,31
943,328	0,31
943,7	0,31
944,071	0,31
944,442	0,31
944,813	0,31
945,184	0,31
945,555	0,31
945,926	0,31
946,297	0,31
946,668	0,32
947,039	0,32
947,409	0,32
947,78	0,31
948,151	0,32
948,521	0,32
948,892	0,32
949,262	0,32
949,633	0,33
950,003	0,32
950,373	0,32
950,743	0,31
951,113	0,32
951,483	0,32
951,853	0,33
952,223	0,32
952,593	0,32
952,963	0,32
953,333	0,32
953,702	0,31
954,072	0,32
954,442	0,31
954,811	0,32
955,181	0,31
955,55	0,32
955,919	0,31
956,289	0,31
956,658	0,32
957,027	0,32
957,396	0,31
957,765	0,31
958,134	0,31
958,503	0,31
958,872	0,3
959,24	0,31
959,609	0,31
959,978	0,31
960,346	0,31
960,715	0,31
961,083	0,31
961,452	0,31
961,82	0,3
962,188	0,3
962,557	0,3
962,925	0,29
963,293	0,29
963,661	0,29
964,029	0,29
964,397	0,29
964,765	0,28
965,133	0,27
965,5	0,28
965,868	0,27
966,236	0,29
966,603	0,28
966,971	0,28
967,338	0,28
967,706	0,26
968,073	0,27
968,44	0,27
968,807	0,27
969,174	0,27
969,542	0,26
969,909	0,25
970,275	0,26
970,642	0,27
971,009	0,25
971,376	0,27
971,743	0,27
972,109	0,25
972,476	0,25
972,842	0,24
973,209	0,24
973,575	0,24
973,942	0,25
974,308	0,25
974,674	0,25
975,04	0,25
975,406	0,24
975,772	0,24
976,138	0,25
976,504	0,23
976,87	0,26
977,236	0,25
977,602	0,23
977,967	0,25
978,333	0,24
978,698	0,25
979,064	0,25
979,429	0,24
979,795	0,24
980,16	0,25
980,525	0,25
980,89	0,25
981,255	0,25
981,621	0,24
981,986	0,25
982,35	0,24
982,715	0,24
983,08	0,24
983,445	0,26
983,81	0,23
984,174	0,25
984,539	0,25
984,903	0,23
985,268	0,26
985,632	0,25
985,996	0,24
986,361	0,25
986,725	0,24
987,089	0,24
987,453	0,24
987,817	0,26
988,181	0,23
988,545	0,24
988,909	0,23
989,272	0,25
989,636	0,24
990	0,26
990,363	0,25
990,727	0,25
991,09	0,25
991,454	0,24
991,817	0,25
992,18	0,24
992,543	0,24
992,907	0,26
993,27	0,25
993,633	0,24
993,996	0,25
994,359	0,25
994,721	0,25
995,084	0,25
995,447	0,26
995,81	0,27
996,172	0,25
996,535	0,27
996,897	0,26
997,259	0,26
997,622	0,25
997,984	0,24
998,346	0,27
998,708	0,23
999,071	0,28
999,433	0,28
999,795	0,27
1000,156	0,27
1000,518	0,27
1000,88	0,25
1001,242	0,24
1001,603	0,25
1001,965	0,25
1002,327	0,25
1002,688	0,25
1003,049	0,26
1003,411	0,26
1003,772	0,25
1004,133	0,28
1004,495	0,25
1004,856	0,26
1005,217	0,28
1005,578	0,24
1005,939	0,26
1006,299	0,26
1006,66	0,26
1007,021	0,25
1007,382	0,25
1007,742	0,24
1008,103	0,24
1008,463	0,23
1008,824	0,26
1009,184	0,24
1009,544	0,29
1009,904	0,25
1010,265	0,26
1010,625	0,25
1010,985	0,24
1011,345	0,25
1011,705	0,25
1012,065	0,25
1012,424	0,26
1012,784	0,26
1013,144	0,25
1013,503	0,26
1013,863	0,24
1014,222	0,22
1014,582	0,24
1014,941	0,24
1015,3	0,25
1015,66	0,23
1016,019	0,24
1016,378	0,25
1016,737	0,25
1017,096	0,24
1017,455	0,23
1017,814	0,25
1018,173	0,25
1018,531	0,26
1018,89	0,25
1019,249	0,23
1019,607	0,27
1019,966	0,25
1020,324	0,23
1020,682	0,23
1021,041	0,25
1021,399	0,24
1021,757	0,24
1022,115	0,25
1022,473	0,25
1022,831	0,23
1023,189	0,24
1023,547	0,23
1023,905	0,23
1024,263	0,26
1024,62	0,23
1024,978	0,25
1025,335	0,27
1025,693	0,26
1026,05	0,22
1026,408	0,22
1026,765	0,23
1027,122	0,25
1027,479	0,25
1027,837	0,25
1028,194	0,23
1028,551	0,25
1028,908	0,25
1029,264	0,24
1029,621	0,25
1029,978	0,24
1030,335	0,23
1030,691	0,24
1031,048	0,23
1031,404	0,24
1031,761	0,24
1032,117	0,25
1032,473	0,26
1032,83	0,23
1033,186	0,25
1033,542	0,24
1033,898	0,24
1034,254	0,24
1034,61	0,24
1034,966	0,24
