Data from Absorbance__6__14-40-54-867.txt Node

Date: Wed Apr 28 14:40:54 CEST 2021
User: thoma
Spectrometer: FLMS05507
Trigger mode: 0
Integration Time (sec): 6,930000E-3
Scans to average: 200
Electric dark correction enabled: true
Nonlinearity correction enabled: false
Boxcar width: 0
XAxis mode: Wavelengths
Number of Pixels in Spectrum: 2048
>>>>>Begin Spectral Data<<<<<
188,96	0,21
189,424	0,21
189,887	0,21
190,351	0,12
190,815	0,08
191,279	-0,21
191,742	-0
192,206	-0
192,669	1
193,133	-0
193,596	1,44
194,06	-1,47
194,523	-0,53
194,987	-0,75
195,45	-0,15
195,913	-0
196,376	0,3
196,84	-0
197,303	-0,36
197,766	-0,04
198,229	-1,01
198,692	-0,55
199,155	0,67
199,618	1,82
200,081	1,86
200,543	1,89
201,006	1,9
201,469	1,9
201,932	1,92
202,394	1,93
202,857	1,94
203,32	1,96
203,782	1,96
204,245	1,96
204,707	1,97
205,169	1,98
205,632	1,99
206,094	1,99
206,556	2,01
207,019	2,02
207,481	2,02
207,943	2,02
208,405	2,03
208,867	2,04
209,329	2,04
209,791	2,03
210,253	2,04
210,715	2,05
211,177	2,04
211,639	2,03
212,1	2,02
212,562	2
213,024	1,99
213,485	1,96
213,947	1,93
214,408	1,91
214,87	1,87
215,331	1,82
215,793	1,78
216,254	1,74
216,715	1,68
217,177	1,62
217,638	1,57
218,099	1,51
218,56	1,45
219,021	1,39
219,482	1,33
219,944	1,27
220,404	1,22
220,865	1,16
221,326	1,11
221,787	1,06
222,248	1,02
222,709	0,98
223,169	0,94
223,63	0,9
224,091	0,87
224,551	0,84
225,012	0,81
225,472	0,79
225,933	0,77
226,393	0,75
226,854	0,73
227,314	0,71
227,774	0,7
228,234	0,69
228,695	0,68
229,155	0,67
229,615	0,66
230,075	0,65
230,535	0,65
230,995	0,64
231,455	0,64
231,915	0,63
232,375	0,63
232,834	0,63
233,294	0,63
233,754	0,62
234,214	0,62
234,673	0,62
235,133	0,62
235,592	0,62
236,052	0,62
236,511	0,62
236,971	0,62
237,43	0,61
237,889	0,61
238,349	0,61
238,808	0,61
239,267	0,61
239,726	0,61
240,185	0,61
240,644	0,61
241,103	0,6
241,562	0,6
242,021	0,6
242,48	0,6
242,939	0,6
243,398	0,59
243,857	0,59
244,315	0,59
244,774	0,59
245,233	0,58
245,691	0,58
246,15	0,58
246,608	0,57
247,067	0,57
247,525	0,57
247,983	0,56
248,442	0,56
248,9	0,55
249,358	0,55
249,816	0,55
250,274	0,54
250,733	0,54
251,191	0,53
251,649	0,53
252,107	0,52
252,564	0,52
253,022	0,51
253,48	0,51
253,938	0,5
254,396	0,49
254,853	0,49
255,311	0,48
255,769	0,48
256,226	0,47
256,684	0,47
257,141	0,46
257,599	0,45
258,056	0,45
258,513	0,44
258,971	0,44
259,428	0,43
259,885	0,43
260,342	0,42
260,799	0,42
261,256	0,41
261,714	0,41
262,171	0,4
262,627	0,4
263,084	0,39
263,541	0,39
263,998	0,38
264,455	0,38
264,912	0,37
265,368	0,37
265,825	0,36
266,281	0,36
266,738	0,36
267,194	0,35
267,651	0,35
268,107	0,34
268,564	0,34
269,02	0,33
269,476	0,33
269,933	0,33
270,389	0,33
270,845	0,32
271,301	0,32
271,757	0,32
272,213	0,31
272,669	0,31
273,125	0,31
273,581	0,31
274,037	0,3
274,492	0,3
274,948	0,3
275,404	0,3
275,86	0,29
276,315	0,29
276,771	0,29
277,226	0,29
277,682	0,29
278,137	0,28
278,593	0,28
279,048	0,28
279,503	0,28
279,958	0,28
280,414	0,28
280,869	0,27
281,324	0,27
281,779	0,27
282,234	0,27
282,689	0,27
283,144	0,27
283,599	0,26
284,054	0,26
284,508	0,26
284,963	0,26
285,418	0,26
285,873	0,26
286,327	0,25
286,782	0,25
287,236	0,25
287,691	0,25
288,145	0,25
288,6	0,25
289,054	0,25
289,508	0,24
289,963	0,24
290,417	0,24
290,871	0,24
291,325	0,24
291,779	0,24
292,233	0,23
292,687	0,23
293,141	0,23
293,595	0,23
294,049	0,23
294,503	0,23
294,957	0,23
295,41	0,23
295,864	0,22
296,318	0,22
296,771	0,22
297,225	0,22
297,678	0,22
298,132	0,22
298,585	0,22
299,039	0,22
299,492	0,22
299,945	0,22
300,398	0,22
300,852	0,21
301,305	0,21
301,758	0,21
302,211	0,21
302,664	0,21
303,117	0,21
303,57	0,21
304,023	0,21
304,476	0,21
304,928	0,21
305,381	0,21
305,834	0,2
306,286	0,2
306,739	0,2
307,192	0,2
307,644	0,2
308,097	0,2
308,549	0,2
309,001	0,2
309,454	0,2
309,906	0,2
310,358	0,2
310,81	0,2
311,263	0,2
311,715	0,19
312,167	0,2
312,619	0,19
313,071	0,19
313,523	0,19
313,975	0,19
314,426	0,19
314,878	0,19
315,33	0,19
315,782	0,19
316,233	0,19
316,685	0,19
317,136	0,19
317,588	0,19
318,039	0,19
318,491	0,19
318,942	0,18
319,393	0,18
319,845	0,18
320,296	0,18
320,747	0,19
321,198	0,18
321,649	0,18
322,101	0,18
322,552	0,18
323,003	0,18
323,453	0,18
323,904	0,18
324,355	0,18
324,806	0,17
325,257	0,17
325,707	0,17
326,158	0,17
326,609	0,17
327,059	0,17
327,51	0,17
327,96	0,17
328,411	0,17
328,861	0,17
329,311	0,17
329,762	0,17
330,212	0,17
330,662	0,17
331,112	0,17
331,562	0,17
332,012	0,17
332,462	0,17
332,912	0,16
333,362	0,16
333,812	0,16
334,262	0,16
334,712	0,16
335,161	0,16
335,611	0,16
336,061	0,16
336,51	0,16
336,96	0,16
337,409	0,16
337,859	0,16
338,308	0,16
338,758	0,15
339,207	0,15
339,656	0,15
340,105	0,15
340,555	0,15
341,004	0,15
341,453	0,15
341,902	0,15
342,351	0,15
342,8	0,15
343,249	0,15
343,698	0,15
344,146	0,15
344,595	0,15
345,044	0,15
345,493	0,15
345,941	0,15
346,39	0,15
346,838	0,15
347,287	0,15
347,735	0,15
348,184	0,15
348,632	0,14
349,08	0,15
349,529	0,15
349,977	0,14
350,425	0,14
350,873	0,14
351,321	0,14
351,769	0,14
352,217	0,14
352,665	0,14
353,113	0,14
353,561	0,14
354,009	0,14
354,456	0,14
354,904	0,14
355,352	0,14
355,799	0,14
356,247	0,14
356,694	0,14
357,142	0,14
357,589	0,14
358,037	0,14
358,484	0,14
358,931	0,14
359,379	0,14
359,826	0,14
360,273	0,14
360,72	0,14
361,167	0,14
361,614	0,14
362,061	0,14
362,508	0,14
362,955	0,14
363,402	0,14
363,848	0,14
364,295	0,14
364,742	0,14
365,188	0,14
365,635	0,14
366,082	0,14
366,528	0,14
366,975	0,14
367,421	0,14
367,867	0,14
368,314	0,14
368,76	0,14
369,206	0,14
369,652	0,14
370,098	0,14
370,545	0,14
370,991	0,14
371,437	0,14
371,882	0,14
372,328	0,14
372,774	0,14
373,22	0,14
373,666	0,14
374,111	0,14
374,557	0,14
375,003	0,14
375,448	0,14
375,894	0,14
376,339	0,14
376,785	0,14
377,23	0,14
377,675	0,14
378,121	0,14
378,566	0,14
379,011	0,14
379,456	0,14
379,901	0,14
380,346	0,14
380,791	0,14
381,236	0,14
381,681	0,14
382,126	0,14
382,571	0,14
383,016	0,14
383,461	0,14
383,905	0,14
384,35	0,14
384,794	0,14
385,239	0,14
385,683	0,14
386,128	0,14
386,572	0,14
387,017	0,14
387,461	0,14
387,905	0,14
388,349	0,14
388,794	0,14
389,238	0,14
389,682	0,14
390,126	0,14
390,57	0,14
391,014	0,14
391,457	0,14
391,901	0,14
392,345	0,14
392,789	0,14
393,233	0,14
393,676	0,14
394,12	0,14
394,563	0,14
395,007	0,14
395,45	0,14
395,894	0,14
396,337	0,14
396,78	0,14
397,224	0,14
397,667	0,14
398,11	0,14
398,553	0,14
398,996	0,14
399,439	0,14
399,882	0,14
400,325	0,14
400,768	0,14
401,211	0,14
401,654	0,14
402,096	0,14
402,539	0,14
402,982	0,14
403,424	0,14
403,867	0,15
404,309	0,14
404,752	0,14
405,194	0,14
405,637	0,15
406,079	0,14
406,521	0,15
406,963	0,15
407,406	0,15
407,848	0,15
408,29	0,15
408,732	0,15
409,174	0,15
409,616	0,15
410,058	0,15
410,499	0,15
410,941	0,15
411,383	0,15
411,825	0,15
412,266	0,15
412,708	0,15
413,15	0,15
413,591	0,15
414,033	0,15
414,474	0,15
414,915	0,15
415,357	0,15
415,798	0,15
416,239	0,15
416,68	0,15
417,121	0,15
417,563	0,15
418,004	0,15
418,445	0,15
418,885	0,15
419,326	0,15
419,767	0,15
420,208	0,15
420,649	0,15
421,089	0,16
421,53	0,16
421,971	0,15
422,411	0,16
422,852	0,16
423,292	0,16
423,733	0,16
424,173	0,16
424,613	0,16
425,054	0,16
425,494	0,16
425,934	0,16
426,374	0,16
426,814	0,16
427,254	0,16
427,694	0,16
428,134	0,17
428,574	0,16
429,014	0,17
429,454	0,17
429,893	0,17
430,333	0,17
430,773	0,17
431,212	0,17
431,652	0,17
432,091	0,17
432,531	0,17
432,97	0,17
433,41	0,17
433,849	0,18
434,288	0,18
434,727	0,18
435,167	0,18
435,606	0,18
436,045	0,18
436,484	0,18
436,923	0,18
437,362	0,18
437,801	0,18
438,239	0,18
438,678	0,19
439,117	0,19
439,556	0,19
439,994	0,19
440,433	0,19
440,871	0,19
441,31	0,19
441,748	0,19
442,187	0,19
442,625	0,19
443,063	0,2
443,502	0,2
443,94	0,2
444,378	0,2
444,816	0,2
445,254	0,2
445,692	0,2
446,13	0,21
446,568	0,21
447,006	0,21
447,444	0,21
447,881	0,21
448,319	0,21
448,757	0,21
449,194	0,21
449,632	0,21
450,07	0,22
450,507	0,22
450,944	0,22
451,382	0,22
451,819	0,22
452,256	0,22
452,694	0,22
453,131	0,23
453,568	0,23
454,005	0,23
454,442	0,23
454,879	0,23
455,316	0,23
455,753	0,24
456,19	0,24
456,627	0,24
457,063	0,24
457,5	0,24
457,937	0,24
458,373	0,24
458,81	0,24
459,246	0,24
459,683	0,24
460,119	0,25
460,556	0,25
460,992	0,25
461,428	0,25
461,864	0,25
462,301	0,25
462,737	0,25
463,173	0,25
463,609	0,26
464,045	0,26
464,481	0,26
464,917	0,26
465,352	0,26
465,788	0,26
466,224	0,26
466,66	0,26
467,095	0,26
467,531	0,26
467,966	0,26
468,402	0,27
468,837	0,27
469,273	0,27
469,708	0,27
470,143	0,27
470,578	0,27
471,014	0,27
471,449	0,27
471,884	0,27
472,319	0,27
472,754	0,28
473,189	0,27
473,624	0,28
474,059	0,28
474,493	0,28
474,928	0,28
475,363	0,28
475,797	0,28
476,232	0,28
476,667	0,28
477,101	0,28
477,536	0,28
477,97	0,29
478,404	0,29
478,839	0,29
479,273	0,29
479,707	0,29
480,141	0,29
480,575	0,29
481,009	0,29
481,444	0,29
481,877	0,29
482,311	0,29
482,745	0,29
483,179	0,29
483,613	0,29
484,047	0,29
484,48	0,3
484,914	0,3
485,347	0,3
485,781	0,3
486,214	0,3
486,648	0,3
487,081	0,3
487,515	0,3
487,948	0,3
488,381	0,3
488,814	0,3
489,247	0,3
489,68	0,3
490,113	0,31
490,546	0,31
490,979	0,31
491,412	0,31
491,845	0,31
492,278	0,31
492,711	0,31
493,143	0,31
493,576	0,31
494,009	0,31
494,441	0,31
494,874	0,32
495,306	0,32
495,738	0,32
496,171	0,32
496,603	0,32
497,035	0,32
497,467	0,32
497,9	0,32
498,332	0,32
498,764	0,32
499,196	0,32
499,628	0,33
500,06	0,33
500,491	0,33
500,923	0,33
501,355	0,33
501,787	0,33
502,218	0,33
502,65	0,33
503,081	0,33
503,513	0,33
503,944	0,33
504,376	0,33
504,807	0,33
505,238	0,34
505,67	0,34
506,101	0,34
506,532	0,34
506,963	0,34
507,394	0,34
507,825	0,34
508,256	0,34
508,687	0,34
509,118	0,34
509,549	0,34
509,979	0,34
510,41	0,34
510,841	0,34
511,271	0,34
511,702	0,34
512,132	0,34
512,563	0,34
512,993	0,34
513,424	0,34
513,854	0,34
514,284	0,34
514,714	0,34
515,145	0,34
515,575	0,34
516,005	0,34
516,435	0,34
516,865	0,34
517,295	0,34
517,724	0,34
518,154	0,34
518,584	0,33
519,014	0,33
519,443	0,33
519,873	0,33
520,303	0,33
520,732	0,33
521,161	0,33
521,591	0,33
522,02	0,33
522,45	0,33
522,879	0,33
523,308	0,33
523,737	0,33
524,166	0,32
524,595	0,32
525,024	0,32
525,453	0,32
525,882	0,32
526,311	0,32
526,74	0,32
527,169	0,32
527,597	0,31
528,026	0,31
528,455	0,31
528,883	0,31
529,312	0,31
529,74	0,31
530,168	0,31
530,597	0,3
531,025	0,3
531,453	0,3
531,882	0,3
532,31	0,3
532,738	0,3
533,166	0,29
533,594	0,29
534,022	0,29
534,45	0,29
534,878	0,29
535,305	0,29
535,733	0,28
536,161	0,28
536,588	0,28
537,016	0,28
537,444	0,28
537,871	0,28
538,299	0,27
538,726	0,27
539,153	0,27
539,581	0,27
540,008	0,27
540,435	0,27
540,862	0,26
541,289	0,26
541,716	0,26
542,143	0,26
542,57	0,26
542,997	0,25
543,424	0,25
543,851	0,25
544,277	0,25
544,704	0,25
545,131	0,25
545,557	0,24
545,984	0,24
546,41	0,24
546,837	0,24
547,263	0,24
547,69	0,24
548,116	0,23
548,542	0,23
548,968	0,23
549,394	0,23
549,82	0,23
550,246	0,23
550,672	0,23
551,098	0,22
551,524	0,22
551,95	0,22
552,376	0,22
552,802	0,22
553,227	0,22
553,653	0,21
554,078	0,21
554,504	0,21
554,929	0,21
555,355	0,21
555,78	0,21
556,206	0,21
556,631	0,2
557,056	0,2
557,481	0,2
557,906	0,2
558,331	0,2
558,756	0,2
559,181	0,2
559,606	0,2
560,031	0,19
560,456	0,19
560,881	0,19
561,305	0,19
561,73	0,19
562,155	0,19
562,579	0,19
563,004	0,19
563,428	0,19
563,853	0,18
564,277	0,18
564,701	0,18
565,126	0,18
565,55	0,18
565,974	0,18
566,398	0,18
566,822	0,18
567,246	0,18
567,67	0,18
568,094	0,18
568,518	0,17
568,941	0,17
569,365	0,17
569,789	0,17
570,213	0,17
570,636	0,17
571,06	0,17
571,483	0,17
571,907	0,17
572,33	0,17
572,753	0,17
573,177	0,17
573,6	0,17
574,023	0,16
574,446	0,16
574,869	0,16
575,292	0,16
575,715	0,16
576,138	0,16
576,561	0,16
576,984	0,16
577,407	0,16
577,829	0,16
578,252	0,16
578,675	0,16
579,097	0,16
579,52	0,16
579,942	0,16
580,364	0,16
580,787	0,16
581,209	0,16
581,631	0,15
582,054	0,15
582,476	0,15
582,898	0,15
583,32	0,16
583,742	0,16
584,164	0,16
584,586	0,16
585,008	0,15
585,429	0,15
585,851	0,15
586,273	0,15
586,694	0,15
587,116	0,15
587,538	0,15
587,959	0,15
588,38	0,15
588,802	0,15
589,223	0,15
589,644	0,15
590,066	0,15
590,487	0,15
590,908	0,15
591,329	0,15
591,75	0,15
592,171	0,15
592,592	0,15
593,013	0,15
593,434	0,15
593,854	0,15
594,275	0,15
594,696	0,15
595,116	0,15
595,537	0,15
595,957	0,15
596,378	0,15
596,798	0,15
597,218	0,15
597,639	0,15
598,059	0,15
598,479	0,15
598,899	0,15
599,319	0,15
599,739	0,15
600,159	0,15
600,579	0,15
600,999	0,15
601,419	0,15
601,839	0,15
602,259	0,15
602,678	0,15
603,098	0,15
603,517	0,15
603,937	0,15
604,356	0,15
604,776	0,15
605,195	0,15
605,614	0,15
606,034	0,15
606,453	0,15
606,872	0,15
607,291	0,15
607,71	0,15
608,129	0,15
608,548	0,15
608,967	0,15
609,386	0,15
609,805	0,15
610,223	0,15
610,642	0,15
611,061	0,15
611,479	0,15
611,898	0,15
612,316	0,15
612,735	0,15
613,153	0,15
613,571	0,15
613,99	0,15
614,408	0,15
614,826	0,15
615,244	0,15
615,662	0,15
616,08	0,15
616,498	0,15
616,916	0,15
617,334	0,15
617,752	0,15
618,169	0,15
618,587	0,15
619,005	0,15
619,422	0,15
619,84	0,15
620,257	0,15
620,675	0,15
621,092	0,15
621,509	0,15
621,927	0,15
622,344	0,15
622,761	0,15
623,178	0,15
623,595	0,15
624,012	0,15
624,429	0,15
624,846	0,15
625,263	0,15
625,68	0,15
626,097	0,15
626,513	0,15
626,93	0,15
627,346	0,15
627,763	0,15
628,179	0,15
628,596	0,15
629,012	0,15
629,429	0,15
629,845	0,15
630,261	0,15
630,677	0,15
631,093	0,15
631,509	0,15
631,925	0,15
632,341	0,15
632,757	0,15
633,173	0,15
633,589	0,15
634,005	0,15
634,42	0,15
634,836	0,15
635,252	0,15
635,667	0,15
636,083	0,15
636,498	0,15
636,913	0,14
637,329	0,15
637,744	0,14
638,159	0,14
638,574	0,14
638,99	0,14
639,405	0,14
639,82	0,14
640,235	0,14
640,65	0,14
641,064	0,14
641,479	0,14
641,894	0,14
642,309	0,14
642,723	0,14
643,138	0,14
643,552	0,14
643,967	0,14
644,381	0,14
644,796	0,14
645,21	0,14
645,624	0,14
646,038	0,14
646,453	0,14
646,867	0,14
647,281	0,14
647,695	0,14
648,109	0,14
648,523	0,14
648,936	0,14
649,35	0,14
649,764	0,14
650,178	0,14
650,591	0,14
651,005	0,14
651,418	0,14
651,832	0,14
652,245	0,14
652,659	0,14
653,072	0,14
653,485	0,14
653,898	0,14
654,312	0,14
654,725	0,14
655,138	0,14
655,551	0,14
655,964	0,14
656,377	0,14
656,789	0,14
657,202	0,14
657,615	0,14
658,028	0,14
658,44	0,14
658,853	0,14
659,265	0,14
659,678	0,14
660,09	0,14
660,503	0,14
660,915	0,14
661,327	0,14
661,739	0,14
662,152	0,14
662,564	0,14
662,976	0,14
663,388	0,14
663,8	0,14
664,211	0,14
664,623	0,14
665,035	0,14
665,447	0,14
665,858	0,14
666,27	0,14
666,682	0,14
667,093	0,14
667,505	0,14
667,916	0,14
668,327	0,14
668,739	0,13
669,15	0,13
669,561	0,14
669,972	0,13
670,383	0,13
670,794	0,13
671,205	0,13
671,616	0,13
672,027	0,13
672,438	0,13
672,849	0,13
673,259	0,13
673,67	0,13
674,08	0,13
674,491	0,13
674,901	0,13
675,312	0,13
675,722	0,13
676,133	0,13
676,543	0,13
676,953	0,13
677,363	0,13
677,773	0,13
678,183	0,13
678,593	0,13
679,003	0,13
679,413	0,13
679,823	0,13
680,233	0,13
680,643	0,13
681,052	0,13
681,462	0,13
681,872	0,13
682,281	0,13
682,691	0,13
683,1	0,13
683,509	0,13
683,919	0,13
684,328	0,13
684,737	0,13
685,146	0,13
685,555	0,13
685,964	0,13
686,373	0,13
686,782	0,13
687,191	0,13
687,6	0,13
688,009	0,13
688,417	0,13
688,826	0,13
689,235	0,13
689,643	0,13
690,052	0,13
690,46	0,13
690,869	0,13
691,277	0,13
691,685	0,13
692,093	0,13
692,502	0,13
692,91	0,13
693,318	0,13
693,726	0,13
694,134	0,13
694,542	0,13
694,949	0,12
695,357	0,12
695,765	0,12
696,173	0,13
696,58	0,12
696,988	0,12
697,395	0,12
697,803	0,12
698,21	0,12
698,618	0,12
699,025	0,12
699,432	0,12
699,839	0,12
700,247	0,12
700,654	0,12
701,061	0,12
701,468	0,12
701,875	0,12
702,281	0,12
702,688	0,12
703,095	0,12
703,502	0,12
703,908	0,12
704,315	0,12
704,722	0,12
705,128	0,12
705,534	0,12
705,941	0,12
706,347	0,12
706,753	0,12
707,16	0,12
707,566	0,12
707,972	0,12
708,378	0,12
708,784	0,12
709,19	0,12
709,596	0,12
710,002	0,12
710,407	0,12
710,813	0,12
711,219	0,12
711,625	0,12
712,03	0,12
712,436	0,12
712,841	0,12
713,246	0,12
713,652	0,12
714,057	0,12
714,462	0,12
714,868	0,12
715,273	0,12
715,678	0,12
716,083	0,12
716,488	0,12
716,893	0,12
717,297	0,12
717,702	0,12
718,107	0,12
718,512	0,12
718,916	0,12
719,321	0,12
719,725	0,12
720,13	0,12
720,534	0,12
720,939	0,12
721,343	0,12
721,747	0,12
722,151	0,12
722,556	0,12
722,96	0,12
723,364	0,12
723,768	0,12
724,172	0,12
724,576	0,12
724,979	0,12
725,383	0,12
725,787	0,12
726,19	0,12
726,594	0,12
726,998	0,12
727,401	0,12
727,805	0,12
728,208	0,12
728,611	0,12
729,014	0,12
729,418	0,12
729,821	0,12
730,224	0,12
730,627	0,12
731,03	0,12
731,433	0,12
731,836	0,12
732,239	0,12
732,641	0,12
733,044	0,12
733,447	0,12
733,849	0,12
734,252	0,12
734,654	0,12
735,057	0,12
735,459	0,12
735,862	0,12
736,264	0,12
736,666	0,12
737,068	0,12
737,47	0,12
737,872	0,12
738,274	0,12
738,676	0,12
739,078	0,12
739,48	0,12
739,882	0,12
740,284	0,12
740,685	0,12
741,087	0,12
741,488	0,12
741,89	0,12
742,291	0,12
742,693	0,12
743,094	0,12
743,495	0,12
743,897	0,12
744,298	0,12
744,699	0,12
745,1	0,12
745,501	0,12
745,902	0,12
746,303	0,12
746,704	0,12
747,105	0,12
747,505	0,12
747,906	0,12
748,307	0,12
748,707	0,12
749,108	0,12
749,508	0,12
749,908	0,12
750,309	0,12
750,709	0,11
751,109	0,11
751,51	0,11
751,91	0,12
752,31	0,12
752,71	0,12
753,11	0,12
753,51	0,12
753,909	0,12
754,309	0,11
754,709	0,11
755,109	0,12
755,508	0,11
755,908	0,12
756,307	0,12
756,707	0,12
757,106	0,12
757,505	0,12
757,905	0,12
758,304	0,12
758,703	0,11
759,102	0,12
759,501	0,12
759,9	0,12
760,299	0,12
760,698	0,12
761,097	0,11
761,496	0,12
761,895	0,12
762,293	0,12
762,692	0,12
763,09	0,12
763,489	0,11
763,887	0,12
764,286	0,11
764,684	0,12
765,082	0,11
765,481	0,11
765,879	0,11
766,277	0,11
766,675	0,11
767,073	0,11
767,471	0,11
767,869	0,11
768,267	0,11
768,664	0,11
769,062	0,11
769,46	0,11
769,857	0,11
770,255	0,11
770,653	0,11
771,05	0,11
771,447	0,11
771,845	0,11
772,242	0,11
772,639	0,11
773,036	0,11
773,433	0,11
773,831	0,11
774,228	0,11
774,624	0,11
775,021	0,11
775,418	0,11
775,815	0,11
776,212	0,11
776,608	0,11
777,005	0,11
777,401	0,11
777,798	0,11
778,194	0,11
778,591	0,11
778,987	0,11
779,383	0,11
779,78	0,11
780,176	0,11
780,572	0,11
780,968	0,11
781,364	0,11
781,76	0,11
782,156	0,11
782,551	0,11
782,947	0,11
783,343	0,11
783,739	0,11
784,134	0,11
784,53	0,11
784,925	0,11
785,321	0,11
785,716	0,11
786,111	0,11
786,507	0,11
786,902	0,11
787,297	0,11
787,692	0,11
788,087	0,11
788,482	0,11
788,877	0,11
789,272	0,11
789,667	0,11
790,061	0,11
790,456	0,11
790,851	0,11
791,245	0,11
791,64	0,11
792,034	0,11
792,429	0,11
792,823	0,11
793,217	0,11
793,612	0,11
794,006	0,11
794,4	0,11
794,794	0,11
795,188	0,11
795,582	0,11
795,976	0,11
796,37	0,11
796,763	0,11
797,157	0,11
797,551	0,11
797,944	0,11
798,338	0,11
798,731	0,11
799,125	0,11
799,518	0,11
799,912	0,11
800,305	0,11
800,698	0,11
801,091	0,11
801,484	0,11
801,877	0,11
802,27	0,11
802,663	0,11
803,056	0,11
803,449	0,11
803,842	0,11
804,235	0,11
804,627	0,11
805,02	0,11
805,412	0,11
805,805	0,11
806,197	0,11
806,59	0,11
806,982	0,11
807,374	0,11
807,766	0,11
808,159	0,11
808,551	0,11
808,943	0,11
809,335	0,11
809,727	0,11
810,118	0,11
810,51	0,11
810,902	0,11
811,294	0,11
811,685	0,11
812,077	0,11
812,468	0,11
812,86	0,11
813,251	0,11
813,643	0,11
814,034	0,11
814,425	0,11
814,816	0,11
815,207	0,11
815,598	0,11
815,989	0,11
816,38	0,11
816,771	0,11
817,162	0,11
817,553	0,11
817,944	0,11
818,334	0,11
818,725	0,11
819,115	0,11
819,506	0,11
819,896	0,11
820,287	0,11
820,677	0,11
821,067	0,11
821,457	0,11
821,848	0,11
822,238	0,11
822,628	0,11
823,018	0,11
823,408	0,11
823,797	0,11
824,187	0,11
824,577	0,11
824,967	0,11
825,356	0,11
825,746	0,11
826,135	0,11
826,525	0,11
826,914	0,11
827,304	0,11
827,693	0,11
828,082	0,11
828,471	0,11
828,86	0,11
829,249	0,11
829,638	0,11
830,027	0,11
830,416	0,11
830,805	0,11
831,194	0,11
831,582	0,11
831,971	0,11
832,36	0,11
832,748	0,11
833,137	0,11
833,525	0,11
833,914	0,11
834,302	0,11
834,69	0,11
835,078	0,11
835,466	0,11
835,854	0,11
836,243	0,11
836,63	0,11
837,018	0,11
837,406	0,11
837,794	0,11
838,182	0,11
838,569	0,11
838,957	0,11
839,345	0,11
839,732	0,11
840,12	0,11
840,507	0,11
840,894	0,11
841,282	0,11
841,669	0,11
842,056	0,11
842,443	0,11
842,83	0,11
843,217	0,11
843,604	0,11
843,991	0,11
844,378	0,11
844,764	0,11
845,151	0,11
845,538	0,11
845,924	0,11
846,311	0,11
846,697	0,11
847,084	0,11
847,47	0,11
847,856	0,11
848,242	0,11
848,629	0,11
849,015	0,11
849,401	0,11
849,787	0,11
850,173	0,11
850,559	0,11
850,944	0,11
851,33	0,11
851,716	0,11
852,102	0,11
852,487	0,11
852,873	0,11
853,258	0,11
853,644	0,11
854,029	0,11
854,414	0,11
854,799	0,11
855,185	0,11
855,57	0,11
855,955	0,11
856,34	0,11
856,725	0,11
857,11	0,11
857,495	0,11
857,879	0,11
858,264	0,11
858,649	0,11
859,033	0,11
859,418	0,11
859,802	0,11
860,187	0,11
860,571	0,11
860,955	0,11
861,34	0,11
861,724	0,11
862,108	0,11
862,492	0,11
862,876	0,11
863,26	0,11
863,644	0,11
864,028	0,11
864,412	0,11
864,795	0,11
865,179	0,11
865,563	0,11
865,946	0,11
866,33	0,11
866,713	0,11
867,097	0,11
867,48	0,11
867,863	0,11
868,246	0,11
868,629	0,11
869,013	0,11
869,396	0,11
869,779	0,11
870,161	0,11
870,544	0,11
870,927	0,11
871,31	0,11
871,693	0,11
872,075	0,11
872,458	0,11
872,84	0,11
873,223	0,11
873,605	0,11
873,987	0,11
874,37	0,11
874,752	0,11
875,134	0,11
875,516	0,11
875,898	0,11
876,28	0,11
876,662	0,11
877,044	0,11
877,426	0,11
877,807	0,11
878,189	0,11
878,571	0,11
878,952	0,11
879,334	0,11
879,715	0,11
880,097	0,11
880,478	0,11
880,859	0,11
881,24	0,11
881,622	0,12
882,003	0,12
882,384	0,12
882,765	0,12
883,146	0,12
883,526	0,12
883,907	0,12
884,288	0,12
884,669	0,12
885,049	0,12
885,43	0,12
885,81	0,12
886,191	0,12
886,571	0,12
886,952	0,12
887,332	0,12
887,712	0,12
888,092	0,12
888,472	0,13
888,852	0,13
889,232	0,13
889,612	0,13
889,992	0,13
890,372	0,13
890,752	0,12
891,131	0,12
891,511	0,13
891,89	0,13
892,27	0,13
892,649	0,13
893,029	0,13
893,408	0,13
893,787	0,13
894,167	0,13
894,546	0,13
894,925	0,13
895,304	0,13
895,683	0,13
896,062	0,13
896,441	0,13
896,819	0,13
897,198	0,13
897,577	0,13
897,955	0,13
898,334	0,13
898,712	0,13
899,091	0,13
899,469	0,13
899,848	0,13
900,226	0,13
900,604	0,13
900,982	0,13
901,36	0,14
901,738	0,14
902,116	0,14
902,494	0,14
902,872	0,14
903,25	0,14
903,628	0,14
904,005	0,14
904,383	0,14
904,76	0,14
905,138	0,15
905,515	0,14
905,893	0,15
906,27	0,15
906,647	0,15
907,024	0,15
907,402	0,15
907,779	0,15
908,156	0,15
908,533	0,15
908,91	0,15
909,286	0,15
909,663	0,15
910,04	0,15
910,417	0,15
910,793	0,16
911,17	0,16
911,546	0,16
911,923	0,16
912,299	0,16
912,675	0,16
913,051	0,16
913,428	0,16
913,804	0,16
914,18	0,16
914,556	0,16
914,932	0,16
915,308	0,17
915,683	0,17
916,059	0,17
916,435	0,17
916,811	0,17
917,186	0,17
917,562	0,17
917,937	0,17
918,313	0,17
918,688	0,17
919,063	0,17
919,438	0,17
919,814	0,18
920,189	0,18
920,564	0,18
920,939	0,18
921,314	0,18
921,689	0,18
922,063	0,18
922,438	0,18
922,813	0,18
923,187	0,18
923,562	0,18
923,936	0,19
924,311	0,18
924,685	0,19
925,06	0,19
925,434	0,19
925,808	0,19
926,182	0,19
926,556	0,19
926,93	0,19
927,304	0,19
927,678	0,19
928,052	0,19
928,426	0,19
928,8	0,19
929,173	0,2
929,547	0,19
929,92	0,2
930,294	0,19
930,667	0,2
931,041	0,2
931,414	0,2
931,787	0,2
932,161	0,2
932,534	0,2
932,907	0,2
933,28	0,2
933,653	0,21
934,026	0,2
934,398	0,21
934,771	0,21
935,144	0,21
935,517	0,21
935,889	0,21
936,262	0,21
936,634	0,21
937,007	0,21
937,379	0,21
937,751	0,21
938,123	0,21
938,496	0,22
938,868	0,21
939,24	0,21
939,612	0,22
939,984	0,21
940,355	0,21
940,727	0,21
941,099	0,22
941,471	0,22
941,842	0,22
942,214	0,22
942,585	0,22
942,957	0,22
943,328	0,22
943,7	0,22
944,071	0,22
944,442	0,22
944,813	0,22
945,184	0,22
945,555	0,22
945,926	0,22
946,297	0,22
946,668	0,23
947,039	0,22
947,409	0,22
947,78	0,22
948,151	0,22
948,521	0,23
948,892	0,23
949,262	0,23
949,633	0,22
950,003	0,23
950,373	0,23
950,743	0,22
951,113	0,22
951,483	0,22
951,853	0,23
952,223	0,22
952,593	0,23
952,963	0,22
953,333	0,23
953,702	0,23
954,072	0,23
954,442	0,22
954,811	0,23
955,181	0,22
955,55	0,23
955,919	0,22
956,289	0,22
956,658	0,23
957,027	0,23
957,396	0,23
957,765	0,23
958,134	0,24
958,503	0,23
958,872	0,22
959,24	0,22
959,609	0,22
959,978	0,23
960,346	0,22
960,715	0,23
961,083	0,22
961,452	0,23
961,82	0,23
962,188	0,23
962,557	0,22
962,925	0,22
963,293	0,22
963,661	0,22
964,029	0,22
964,397	0,23
964,765	0,21
965,133	0,21
965,5	0,21
965,868	0,2
966,236	0,22
966,603	0,21
966,971	0,21
967,338	0,21
967,706	0,21
968,073	0,21
968,44	0,2
968,807	0,21
969,174	0,2
969,542	0,19
969,909	0,21
970,275	0,2
970,642	0,21
971,009	0,2
971,376	0,22
971,743	0,21
972,109	0,21
972,476	0,2
972,842	0,2
973,209	0,18
973,575	0,2
973,942	0,2
974,308	0,19
974,674	0,21
975,04	0,2
975,406	0,19
975,772	0,2
976,138	0,19
976,504	0,18
976,87	0,2
977,236	0,2
977,602	0,18
977,967	0,2
978,333	0,19
978,698	0,19
979,064	0,2
979,429	0,2
979,795	0,19
980,16	0,2
980,525	0,19
980,89	0,19
981,255	0,2
981,621	0,18
981,986	0,2
982,35	0,21
982,715	0,19
983,08	0,2
983,445	0,2
983,81	0,19
984,174	0,2
984,539	0,19
984,903	0,19
985,268	0,2
985,632	0,19
985,996	0,18
986,361	0,19
986,725	0,18
987,089	0,18
987,453	0,19
987,817	0,19
988,181	0,18
988,545	0,2
988,909	0,2
989,272	0,19
989,636	0,19
990	0,19
990,363	0,17
990,727	0,18
991,09	0,17
991,454	0,2
991,817	0,21
992,18	0,2
992,543	0,19
992,907	0,2
993,27	0,18
993,633	0,18
993,996	0,2
994,359	0,18
994,721	0,19
995,084	0,2
995,447	0,2
995,81	0,2
996,172	0,18
996,535	0,19
996,897	0,19
997,259	0,19
997,622	0,18
997,984	0,18
998,346	0,2
998,708	0,17
999,071	0,2
999,433	0,21
999,795	0,19
1000,156	0,18
1000,518	0,19
1000,88	0,19
1001,242	0,17
1001,603	0,18
1001,965	0,18
1002,327	0,19
1002,688	0,18
1003,049	0,19
1003,411	0,18
1003,772	0,17
1004,133	0,18
1004,495	0,18
1004,856	0,18
1005,217	0,19
1005,578	0,18
1005,939	0,18
1006,299	0,18
1006,66	0,18
1007,021	0,19
1007,382	0,19
1007,742	0,19
1008,103	0,19
1008,463	0,2
1008,824	0,19
1009,184	0,2
1009,544	0,21
1009,904	0,19
1010,265	0,17
1010,625	0,2
1010,985	0,18
1011,345	0,19
1011,705	0,17
1012,065	0,19
1012,424	0,17
1012,784	0,17
1013,144	0,17
1013,503	0,18
1013,863	0,18
1014,222	0,16
1014,582	0,17
1014,941	0,17
1015,3	0,18
1015,66	0,18
1016,019	0,18
1016,378	0,16
1016,737	0,18
1017,096	0,18
1017,455	0,17
1017,814	0,18
1018,173	0,18
1018,531	0,18
1018,89	0,18
1019,249	0,17
1019,607	0,17
1019,966	0,18
1020,324	0,17
1020,682	0,17
1021,041	0,18
1021,399	0,17
1021,757	0,18
1022,115	0,17
1022,473	0,18
1022,831	0,17
1023,189	0,17
1023,547	0,15
1023,905	0,18
1024,263	0,18
1024,62	0,17
1024,978	0,18
1025,335	0,19
1025,693	0,2
1026,05	0,17
1026,408	0,17
1026,765	0,17
1027,122	0,15
1027,479	0,17
1027,837	0,17
1028,194	0,22
1028,551	0,18
1028,908	0,17
1029,264	0,18
1029,621	0,16
1029,978	0,19
1030,335	0,16
1030,691	0,18
1031,048	0,17
1031,404	0,16
1031,761	0,16
1032,117	0,15
1032,473	0,17
1032,83	0,17
1033,186	0,17
1033,542	0,16
1033,898	0,18
1034,254	0,16
1034,61	0,16
1034,966	0,16
