Data from Absorbance__7__14-41-08-851.txt Node

Date: Wed Apr 28 14:41:08 CEST 2021
User: thoma
Spectrometer: FLMS05507
Trigger mode: 0
Integration Time (sec): 6,930000E-3
Scans to average: 200
Electric dark correction enabled: true
Nonlinearity correction enabled: false
Boxcar width: 0
XAxis mode: Wavelengths
Number of Pixels in Spectrum: 2048
>>>>>Begin Spectral Data<<<<<
188,96	0,17
189,424	0,17
189,887	0,17
190,351	0,22
190,815	0,16
191,279	-0
191,742	-0
192,206	-0,28
192,669	-0,62
193,133	0,15
193,596	-0,02
194,06	-0
194,523	-0,55
194,987	-0
195,45	-0,43
195,913	-0,21
196,376	-0,2
196,84	-0
197,303	-0,23
197,766	-0,05
198,229	-0
198,692	-0,33
199,155	0,54
199,618	1,86
200,081	1,89
200,543	1,91
201,006	1,93
201,469	1,93
201,932	1,95
202,394	1,96
202,857	1,97
203,32	1,98
203,782	1,99
204,245	2
204,707	2
205,169	2,01
205,632	2,02
206,094	2,02
206,556	2,04
207,019	2,04
207,481	2,05
207,943	2,06
208,405	2,06
208,867	2,07
209,329	2,07
209,791	2,07
210,253	2,08
210,715	2,07
211,177	2,08
211,639	2,07
212,1	2,07
212,562	2,05
213,024	2,04
213,485	2,02
213,947	1,99
214,408	1,98
214,87	1,94
215,331	1,89
215,793	1,85
216,254	1,81
216,715	1,75
217,177	1,69
217,638	1,63
218,099	1,57
218,56	1,51
219,021	1,45
219,482	1,38
219,944	1,32
220,404	1,26
220,865	1,2
221,326	1,15
221,787	1,1
222,248	1,05
222,709	1,01
223,169	0,97
223,63	0,93
224,091	0,89
224,551	0,86
225,012	0,83
225,472	0,81
225,933	0,78
226,393	0,76
226,854	0,75
227,314	0,73
227,774	0,71
228,234	0,7
228,695	0,69
229,155	0,68
229,615	0,67
230,075	0,66
230,535	0,65
230,995	0,65
231,455	0,64
231,915	0,64
232,375	0,64
232,834	0,63
233,294	0,63
233,754	0,63
234,214	0,63
234,673	0,62
235,133	0,62
235,592	0,62
236,052	0,62
236,511	0,62
236,971	0,62
237,43	0,62
237,889	0,62
238,349	0,62
238,808	0,61
239,267	0,61
239,726	0,61
240,185	0,61
240,644	0,61
241,103	0,61
241,562	0,6
242,021	0,6
242,48	0,6
242,939	0,6
243,398	0,6
243,857	0,59
244,315	0,59
244,774	0,59
245,233	0,58
245,691	0,58
246,15	0,58
246,608	0,57
247,067	0,57
247,525	0,57
247,983	0,56
248,442	0,56
248,9	0,55
249,358	0,55
249,816	0,55
250,274	0,54
250,733	0,54
251,191	0,53
251,649	0,53
252,107	0,52
252,564	0,52
253,022	0,51
253,48	0,51
253,938	0,5
254,396	0,5
254,853	0,49
255,311	0,48
255,769	0,48
256,226	0,47
256,684	0,47
257,141	0,46
257,599	0,46
258,056	0,45
258,513	0,44
258,971	0,44
259,428	0,43
259,885	0,43
260,342	0,42
260,799	0,42
261,256	0,41
261,714	0,41
262,171	0,4
262,627	0,4
263,084	0,39
263,541	0,39
263,998	0,38
264,455	0,38
264,912	0,37
265,368	0,37
265,825	0,36
266,281	0,36
266,738	0,36
267,194	0,35
267,651	0,35
268,107	0,34
268,564	0,34
269,02	0,34
269,476	0,33
269,933	0,33
270,389	0,33
270,845	0,32
271,301	0,32
271,757	0,32
272,213	0,31
272,669	0,31
273,125	0,31
273,581	0,31
274,037	0,3
274,492	0,3
274,948	0,3
275,404	0,3
275,86	0,3
276,315	0,29
276,771	0,29
277,226	0,29
277,682	0,29
278,137	0,28
278,593	0,28
279,048	0,28
279,503	0,28
279,958	0,28
280,414	0,28
280,869	0,27
281,324	0,27
281,779	0,27
282,234	0,27
282,689	0,27
283,144	0,27
283,599	0,26
284,054	0,26
284,508	0,26
284,963	0,26
285,418	0,26
285,873	0,26
286,327	0,25
286,782	0,25
287,236	0,25
287,691	0,25
288,145	0,25
288,6	0,25
289,054	0,25
289,508	0,24
289,963	0,24
290,417	0,24
290,871	0,24
291,325	0,24
291,779	0,24
292,233	0,23
292,687	0,23
293,141	0,23
293,595	0,23
294,049	0,23
294,503	0,23
294,957	0,23
295,41	0,23
295,864	0,22
296,318	0,22
296,771	0,22
297,225	0,22
297,678	0,22
298,132	0,22
298,585	0,22
299,039	0,22
299,492	0,22
299,945	0,22
300,398	0,22
300,852	0,21
301,305	0,21
301,758	0,21
302,211	0,21
302,664	0,21
303,117	0,21
303,57	0,21
304,023	0,21
304,476	0,21
304,928	0,21
305,381	0,21
305,834	0,21
306,286	0,21
306,739	0,2
307,192	0,2
307,644	0,2
308,097	0,2
308,549	0,2
309,001	0,2
309,454	0,2
309,906	0,2
310,358	0,2
310,81	0,2
311,263	0,2
311,715	0,2
312,167	0,2
312,619	0,2
313,071	0,19
313,523	0,19
313,975	0,19
314,426	0,19
314,878	0,19
315,33	0,19
315,782	0,19
316,233	0,19
316,685	0,19
317,136	0,19
317,588	0,19
318,039	0,19
318,491	0,19
318,942	0,19
319,393	0,18
319,845	0,18
320,296	0,18
320,747	0,19
321,198	0,18
321,649	0,18
322,101	0,18
322,552	0,18
323,003	0,18
323,453	0,18
323,904	0,18
324,355	0,18
324,806	0,18
325,257	0,18
325,707	0,18
326,158	0,17
326,609	0,17
327,059	0,17
327,51	0,17
327,96	0,17
328,411	0,17
328,861	0,17
329,311	0,17
329,762	0,17
330,212	0,17
330,662	0,17
331,112	0,17
331,562	0,17
332,012	0,17
332,462	0,17
332,912	0,17
333,362	0,17
333,812	0,16
334,262	0,16
334,712	0,16
335,161	0,16
335,611	0,16
336,061	0,16
336,51	0,16
336,96	0,16
337,409	0,16
337,859	0,16
338,308	0,16
338,758	0,16
339,207	0,16
339,656	0,16
340,105	0,15
340,555	0,15
341,004	0,15
341,453	0,15
341,902	0,15
342,351	0,15
342,8	0,15
343,249	0,15
343,698	0,15
344,146	0,15
344,595	0,15
345,044	0,15
345,493	0,15
345,941	0,15
346,39	0,15
346,838	0,15
347,287	0,15
347,735	0,15
348,184	0,15
348,632	0,15
349,08	0,15
349,529	0,15
349,977	0,15
350,425	0,15
350,873	0,15
351,321	0,15
351,769	0,15
352,217	0,15
352,665	0,15
353,113	0,15
353,561	0,15
354,009	0,15
354,456	0,15
354,904	0,14
355,352	0,15
355,799	0,14
356,247	0,14
356,694	0,14
357,142	0,14
357,589	0,14
358,037	0,14
358,484	0,14
358,931	0,14
359,379	0,14
359,826	0,14
360,273	0,14
360,72	0,14
361,167	0,14
361,614	0,14
362,061	0,14
362,508	0,14
362,955	0,14
363,402	0,14
363,848	0,14
364,295	0,14
364,742	0,14
365,188	0,14
365,635	0,14
366,082	0,14
366,528	0,14
366,975	0,14
367,421	0,14
367,867	0,14
368,314	0,14
368,76	0,14
369,206	0,14
369,652	0,14
370,098	0,14
370,545	0,14
370,991	0,14
371,437	0,14
371,882	0,14
372,328	0,14
372,774	0,14
373,22	0,14
373,666	0,14
374,111	0,14
374,557	0,14
375,003	0,14
375,448	0,14
375,894	0,14
376,339	0,14
376,785	0,14
377,23	0,14
377,675	0,14
378,121	0,14
378,566	0,14
379,011	0,14
379,456	0,14
379,901	0,14
380,346	0,14
380,791	0,15
381,236	0,15
381,681	0,15
382,126	0,15
382,571	0,15
383,016	0,15
383,461	0,15
383,905	0,15
384,35	0,15
384,794	0,15
385,239	0,15
385,683	0,15
386,128	0,15
386,572	0,15
387,017	0,15
387,461	0,15
387,905	0,15
388,349	0,15
388,794	0,15
389,238	0,15
389,682	0,15
390,126	0,15
390,57	0,15
391,014	0,15
391,457	0,15
391,901	0,15
392,345	0,15
392,789	0,15
393,233	0,15
393,676	0,15
394,12	0,15
394,563	0,15
395,007	0,15
395,45	0,16
395,894	0,16
396,337	0,16
396,78	0,16
397,224	0,16
397,667	0,16
398,11	0,16
398,553	0,16
398,996	0,16
399,439	0,16
399,882	0,16
400,325	0,16
400,768	0,16
401,211	0,16
401,654	0,16
402,096	0,16
402,539	0,16
402,982	0,16
403,424	0,16
403,867	0,16
404,309	0,16
404,752	0,16
405,194	0,16
405,637	0,16
406,079	0,16
406,521	0,16
406,963	0,16
407,406	0,16
407,848	0,17
408,29	0,16
408,732	0,16
409,174	0,16
409,616	0,17
410,058	0,17
410,499	0,17
410,941	0,17
411,383	0,17
411,825	0,17
412,266	0,17
412,708	0,17
413,15	0,17
413,591	0,17
414,033	0,17
414,474	0,17
414,915	0,17
415,357	0,17
415,798	0,17
416,239	0,17
416,68	0,18
417,121	0,18
417,563	0,18
418,004	0,18
418,445	0,18
418,885	0,18
419,326	0,18
419,767	0,18
420,208	0,18
420,649	0,18
421,089	0,18
421,53	0,19
421,971	0,18
422,411	0,19
422,852	0,19
423,292	0,19
423,733	0,19
424,173	0,19
424,613	0,19
425,054	0,19
425,494	0,19
425,934	0,2
426,374	0,2
426,814	0,2
427,254	0,2
427,694	0,2
428,134	0,2
428,574	0,2
429,014	0,2
429,454	0,21
429,893	0,21
430,333	0,21
430,773	0,21
431,212	0,21
431,652	0,21
432,091	0,22
432,531	0,22
432,97	0,22
433,41	0,22
433,849	0,22
434,288	0,23
434,727	0,22
435,167	0,23
435,606	0,23
436,045	0,23
436,484	0,23
436,923	0,23
437,362	0,24
437,801	0,24
438,239	0,24
438,678	0,24
439,117	0,25
439,556	0,25
439,994	0,25
440,433	0,25
440,871	0,25
441,31	0,26
441,748	0,26
442,187	0,26
442,625	0,26
443,063	0,26
443,502	0,27
443,94	0,27
444,378	0,27
444,816	0,27
445,254	0,28
445,692	0,28
446,13	0,28
446,568	0,29
447,006	0,29
447,444	0,29
447,881	0,29
448,319	0,3
448,757	0,3
449,194	0,3
449,632	0,31
450,07	0,31
450,507	0,31
450,944	0,31
451,382	0,32
451,819	0,32
452,256	0,32
452,694	0,32
453,131	0,33
453,568	0,33
454,005	0,33
454,442	0,33
454,879	0,34
455,316	0,34
455,753	0,35
456,19	0,35
456,627	0,35
457,063	0,35
457,5	0,36
457,937	0,36
458,373	0,36
458,81	0,36
459,246	0,36
459,683	0,37
460,119	0,37
460,556	0,37
460,992	0,37
461,428	0,37
461,864	0,38
462,301	0,38
462,737	0,38
463,173	0,38
463,609	0,39
464,045	0,39
464,481	0,39
464,917	0,39
465,352	0,4
465,788	0,4
466,224	0,4
466,66	0,4
467,095	0,4
467,531	0,41
467,966	0,41
468,402	0,41
468,837	0,41
469,273	0,41
469,708	0,41
470,143	0,42
470,578	0,42
471,014	0,42
471,449	0,42
471,884	0,42
472,319	0,43
472,754	0,43
473,189	0,43
473,624	0,43
474,059	0,43
474,493	0,44
474,928	0,44
475,363	0,44
475,797	0,44
476,232	0,44
476,667	0,45
477,101	0,45
477,536	0,45
477,97	0,45
478,404	0,45
478,839	0,45
479,273	0,45
479,707	0,46
480,141	0,46
480,575	0,46
481,009	0,46
481,444	0,46
481,877	0,46
482,311	0,46
482,745	0,46
483,179	0,47
483,613	0,47
484,047	0,47
484,48	0,47
484,914	0,47
485,347	0,47
485,781	0,47
486,214	0,47
486,648	0,48
487,081	0,48
487,515	0,48
487,948	0,48
488,381	0,48
488,814	0,49
489,247	0,49
489,68	0,49
490,113	0,49
490,546	0,49
490,979	0,5
491,412	0,5
491,845	0,5
492,278	0,5
492,711	0,5
493,143	0,51
493,576	0,51
494,009	0,51
494,441	0,51
494,874	0,51
495,306	0,52
495,738	0,52
496,171	0,52
496,603	0,52
497,035	0,52
497,467	0,52
497,9	0,53
498,332	0,53
498,764	0,53
499,196	0,53
499,628	0,53
500,06	0,54
500,491	0,54
500,923	0,54
501,355	0,54
501,787	0,54
502,218	0,55
502,65	0,55
503,081	0,55
503,513	0,55
503,944	0,55
504,376	0,55
504,807	0,55
505,238	0,55
505,67	0,56
506,101	0,56
506,532	0,56
506,963	0,56
507,394	0,56
507,825	0,56
508,256	0,56
508,687	0,56
509,118	0,56
509,549	0,56
509,979	0,56
510,41	0,57
510,841	0,57
511,271	0,56
511,702	0,57
512,132	0,57
512,563	0,57
512,993	0,57
513,424	0,56
513,854	0,57
514,284	0,57
514,714	0,57
515,145	0,56
515,575	0,56
516,005	0,56
516,435	0,56
516,865	0,56
517,295	0,56
517,724	0,56
518,154	0,56
518,584	0,56
519,014	0,56
519,443	0,56
519,873	0,55
520,303	0,55
520,732	0,55
521,161	0,55
521,591	0,55
522,02	0,55
522,45	0,55
522,879	0,54
523,308	0,54
523,737	0,54
524,166	0,54
524,595	0,54
525,024	0,53
525,453	0,53
525,882	0,53
526,311	0,53
526,74	0,53
527,169	0,52
527,597	0,52
528,026	0,52
528,455	0,52
528,883	0,51
529,312	0,51
529,74	0,51
530,168	0,5
530,597	0,5
531,025	0,5
531,453	0,5
531,882	0,49
532,31	0,49
532,738	0,49
533,166	0,48
533,594	0,48
534,022	0,48
534,45	0,47
534,878	0,47
535,305	0,47
535,733	0,46
536,161	0,46
536,588	0,46
537,016	0,45
537,444	0,45
537,871	0,45
538,299	0,44
538,726	0,44
539,153	0,44
539,581	0,43
540,008	0,43
540,435	0,42
540,862	0,42
541,289	0,42
541,716	0,41
542,143	0,41
542,57	0,41
542,997	0,4
543,424	0,4
543,851	0,4
544,277	0,39
544,704	0,39
545,131	0,39
545,557	0,38
545,984	0,38
546,41	0,38
546,837	0,37
547,263	0,37
547,69	0,37
548,116	0,36
548,542	0,36
548,968	0,36
549,394	0,35
549,82	0,35
550,246	0,35
550,672	0,35
551,098	0,34
551,524	0,34
551,95	0,34
552,376	0,33
552,802	0,33
553,227	0,33
553,653	0,32
554,078	0,32
554,504	0,32
554,929	0,31
555,355	0,31
555,78	0,31
556,206	0,31
556,631	0,3
557,056	0,3
557,481	0,3
557,906	0,3
558,331	0,29
558,756	0,29
559,181	0,29
559,606	0,29
560,031	0,28
560,456	0,28
560,881	0,28
561,305	0,28
561,73	0,27
562,155	0,27
562,579	0,27
563,004	0,27
563,428	0,27
563,853	0,26
564,277	0,26
564,701	0,26
565,126	0,26
565,55	0,26
565,974	0,25
566,398	0,25
566,822	0,25
567,246	0,25
567,67	0,25
568,094	0,24
568,518	0,24
568,941	0,24
569,365	0,24
569,789	0,24
570,213	0,23
570,636	0,23
571,06	0,23
571,483	0,23
571,907	0,23
572,33	0,23
572,753	0,22
573,177	0,22
573,6	0,22
574,023	0,22
574,446	0,22
574,869	0,22
575,292	0,22
575,715	0,22
576,138	0,22
576,561	0,22
576,984	0,21
577,407	0,21
577,829	0,21
578,252	0,21
578,675	0,21
579,097	0,21
579,52	0,21
579,942	0,21
580,364	0,21
580,787	0,21
581,209	0,2
581,631	0,2
582,054	0,2
582,476	0,2
582,898	0,2
583,32	0,2
583,742	0,2
584,164	0,2
584,586	0,2
585,008	0,2
585,429	0,2
585,851	0,2
586,273	0,2
586,694	0,2
587,116	0,2
587,538	0,2
587,959	0,2
588,38	0,2
588,802	0,2
589,223	0,2
589,644	0,2
590,066	0,2
590,487	0,2
590,908	0,2
591,329	0,2
591,75	0,2
592,171	0,2
592,592	0,2
593,013	0,19
593,434	0,19
593,854	0,19
594,275	0,19
594,696	0,19
595,116	0,2
595,537	0,2
595,957	0,19
596,378	0,2
596,798	0,2
597,218	0,2
597,639	0,2
598,059	0,19
598,479	0,19
598,899	0,19
599,319	0,19
599,739	0,19
600,159	0,19
600,579	0,19
600,999	0,19
601,419	0,19
601,839	0,19
602,259	0,19
602,678	0,19
603,098	0,19
603,517	0,19
603,937	0,19
604,356	0,19
604,776	0,19
605,195	0,19
605,614	0,19
606,034	0,19
606,453	0,19
606,872	0,19
607,291	0,18
607,71	0,18
608,129	0,19
608,548	0,19
608,967	0,19
609,386	0,19
609,805	0,19
610,223	0,19
610,642	0,19
611,061	0,19
611,479	0,19
611,898	0,19
612,316	0,19
612,735	0,19
613,153	0,19
613,571	0,19
613,99	0,19
614,408	0,19
614,826	0,19
615,244	0,19
615,662	0,19
616,08	0,19
616,498	0,19
616,916	0,19
617,334	0,19
617,752	0,19
618,169	0,19
618,587	0,19
619,005	0,19
619,422	0,19
619,84	0,19
620,257	0,19
620,675	0,19
621,092	0,19
621,509	0,19
621,927	0,19
622,344	0,19
622,761	0,19
623,178	0,19
623,595	0,19
624,012	0,19
624,429	0,19
624,846	0,19
625,263	0,19
625,68	0,19
626,097	0,19
626,513	0,19
626,93	0,19
627,346	0,19
627,763	0,19
628,179	0,19
628,596	0,19
629,012	0,19
629,429	0,19
629,845	0,19
630,261	0,19
630,677	0,19
631,093	0,19
631,509	0,19
631,925	0,19
632,341	0,19
632,757	0,19
633,173	0,19
633,589	0,19
634,005	0,19
634,42	0,19
634,836	0,18
635,252	0,19
635,667	0,19
636,083	0,19
636,498	0,18
636,913	0,18
637,329	0,19
637,744	0,18
638,159	0,19
638,574	0,18
638,99	0,18
639,405	0,18
639,82	0,18
640,235	0,18
640,65	0,18
641,064	0,18
641,479	0,18
641,894	0,18
642,309	0,18
642,723	0,18
643,138	0,18
643,552	0,18
643,967	0,18
644,381	0,18
644,796	0,18
645,21	0,18
645,624	0,18
646,038	0,18
646,453	0,18
646,867	0,18
647,281	0,18
647,695	0,18
648,109	0,18
648,523	0,18
648,936	0,18
649,35	0,18
649,764	0,18
650,178	0,18
650,591	0,18
651,005	0,18
651,418	0,18
651,832	0,18
652,245	0,18
652,659	0,18
653,072	0,18
653,485	0,18
653,898	0,18
654,312	0,18
654,725	0,18
655,138	0,18
655,551	0,18
655,964	0,17
656,377	0,17
656,789	0,17
657,202	0,17
657,615	0,17
658,028	0,18
658,44	0,18
658,853	0,18
659,265	0,18
659,678	0,17
660,09	0,17
660,503	0,17
660,915	0,18
661,327	0,18
661,739	0,18
662,152	0,18
662,564	0,17
662,976	0,17
663,388	0,17
663,8	0,17
664,211	0,17
664,623	0,17
665,035	0,17
665,447	0,17
665,858	0,17
666,27	0,17
666,682	0,17
667,093	0,17
667,505	0,17
667,916	0,17
668,327	0,17
668,739	0,17
669,15	0,17
669,561	0,17
669,972	0,17
670,383	0,17
670,794	0,17
671,205	0,17
671,616	0,17
672,027	0,17
672,438	0,17
672,849	0,17
673,259	0,17
673,67	0,17
674,08	0,17
674,491	0,17
674,901	0,17
675,312	0,17
675,722	0,17
676,133	0,17
676,543	0,17
676,953	0,17
677,363	0,17
677,773	0,17
678,183	0,17
678,593	0,17
679,003	0,17
679,413	0,17
679,823	0,16
680,233	0,16
680,643	0,16
681,052	0,16
681,462	0,16
681,872	0,16
682,281	0,16
682,691	0,16
683,1	0,16
683,509	0,16
683,919	0,16
684,328	0,16
684,737	0,16
685,146	0,16
685,555	0,16
685,964	0,16
686,373	0,16
686,782	0,16
687,191	0,16
687,6	0,16
688,009	0,16
688,417	0,16
688,826	0,16
689,235	0,16
689,643	0,16
690,052	0,16
690,46	0,16
690,869	0,16
691,277	0,16
691,685	0,16
692,093	0,16
692,502	0,16
692,91	0,16
693,318	0,16
693,726	0,16
694,134	0,16
694,542	0,16
694,949	0,16
695,357	0,16
695,765	0,16
696,173	0,16
696,58	0,16
696,988	0,16
697,395	0,16
697,803	0,16
698,21	0,16
698,618	0,16
699,025	0,16
699,432	0,16
699,839	0,16
700,247	0,16
700,654	0,16
701,061	0,16
701,468	0,16
701,875	0,16
702,281	0,16
702,688	0,15
703,095	0,16
703,502	0,15
703,908	0,15
704,315	0,15
704,722	0,15
705,128	0,15
705,534	0,15
705,941	0,15
706,347	0,15
706,753	0,15
707,16	0,15
707,566	0,15
707,972	0,15
708,378	0,15
708,784	0,15
709,19	0,15
709,596	0,15
710,002	0,15
710,407	0,15
710,813	0,15
711,219	0,15
711,625	0,15
712,03	0,15
712,436	0,15
712,841	0,15
713,246	0,15
713,652	0,15
714,057	0,15
714,462	0,15
714,868	0,15
715,273	0,15
715,678	0,15
716,083	0,15
716,488	0,15
716,893	0,15
717,297	0,15
717,702	0,15
718,107	0,15
718,512	0,15
718,916	0,15
719,321	0,15
719,725	0,15
720,13	0,15
720,534	0,15
720,939	0,15
721,343	0,15
721,747	0,15
722,151	0,15
722,556	0,15
722,96	0,15
723,364	0,15
723,768	0,15
724,172	0,15
724,576	0,15
724,979	0,15
725,383	0,15
725,787	0,15
726,19	0,15
726,594	0,15
726,998	0,15
727,401	0,15
727,805	0,15
728,208	0,15
728,611	0,15
729,014	0,15
729,418	0,15
729,821	0,15
730,224	0,15
730,627	0,15
731,03	0,15
731,433	0,15
731,836	0,15
732,239	0,15
732,641	0,15
733,044	0,15
733,447	0,15
733,849	0,15
734,252	0,15
734,654	0,15
735,057	0,15
735,459	0,15
735,862	0,15
736,264	0,15
736,666	0,15
737,068	0,15
737,47	0,15
737,872	0,15
738,274	0,15
738,676	0,15
739,078	0,15
739,48	0,15
739,882	0,15
740,284	0,15
740,685	0,15
741,087	0,15
741,488	0,15
741,89	0,15
742,291	0,15
742,693	0,15
743,094	0,15
743,495	0,15
743,897	0,15
744,298	0,15
744,699	0,15
745,1	0,15
745,501	0,15
745,902	0,15
746,303	0,15
746,704	0,15
747,105	0,15
747,505	0,15
747,906	0,15
748,307	0,15
748,707	0,15
749,108	0,15
749,508	0,15
749,908	0,15
750,309	0,15
750,709	0,15
751,109	0,14
751,51	0,15
751,91	0,15
752,31	0,15
752,71	0,15
753,11	0,15
753,51	0,15
753,909	0,15
754,309	0,15
754,709	0,15
755,109	0,15
755,508	0,15
755,908	0,15
756,307	0,15
756,707	0,15
757,106	0,15
757,505	0,15
757,905	0,15
758,304	0,15
758,703	0,15
759,102	0,15
759,501	0,15
759,9	0,15
760,299	0,15
760,698	0,15
761,097	0,15
761,496	0,15
761,895	0,15
762,293	0,15
762,692	0,15
763,09	0,15
763,489	0,15
763,887	0,15
764,286	0,15
764,684	0,15
765,082	0,15
765,481	0,15
765,879	0,15
766,277	0,15
766,675	0,15
767,073	0,15
767,471	0,15
767,869	0,15
768,267	0,15
768,664	0,15
769,062	0,15
769,46	0,15
769,857	0,14
770,255	0,15
770,653	0,15
771,05	0,15
771,447	0,15
771,845	0,14
772,242	0,15
772,639	0,15
773,036	0,15
773,433	0,15
773,831	0,15
774,228	0,15
774,624	0,15
775,021	0,15
775,418	0,14
775,815	0,15
776,212	0,15
776,608	0,14
777,005	0,14
777,401	0,14
777,798	0,14
778,194	0,14
778,591	0,15
778,987	0,15
779,383	0,14
779,78	0,14
780,176	0,14
780,572	0,14
780,968	0,15
781,364	0,14
781,76	0,14
782,156	0,14
782,551	0,14
782,947	0,14
783,343	0,14
783,739	0,14
784,134	0,14
784,53	0,14
784,925	0,14
785,321	0,14
785,716	0,14
786,111	0,14
786,507	0,14
786,902	0,14
787,297	0,14
787,692	0,14
788,087	0,14
788,482	0,14
788,877	0,14
789,272	0,14
789,667	0,14
790,061	0,14
790,456	0,14
790,851	0,14
791,245	0,14
791,64	0,14
792,034	0,14
792,429	0,14
792,823	0,14
793,217	0,14
793,612	0,14
794,006	0,14
794,4	0,14
794,794	0,14
795,188	0,14
795,582	0,14
795,976	0,14
796,37	0,14
796,763	0,14
797,157	0,14
797,551	0,14
797,944	0,14
798,338	0,14
798,731	0,14
799,125	0,14
799,518	0,14
799,912	0,14
800,305	0,14
800,698	0,14
801,091	0,14
801,484	0,14
801,877	0,14
802,27	0,14
802,663	0,14
803,056	0,14
803,449	0,14
803,842	0,14
804,235	0,14
804,627	0,14
805,02	0,14
805,412	0,14
805,805	0,14
806,197	0,14
806,59	0,14
806,982	0,14
807,374	0,14
807,766	0,14
808,159	0,14
808,551	0,14
808,943	0,14
809,335	0,14
809,727	0,14
810,118	0,14
810,51	0,14
810,902	0,14
811,294	0,14
811,685	0,14
812,077	0,14
812,468	0,14
812,86	0,14
813,251	0,14
813,643	0,14
814,034	0,14
814,425	0,14
814,816	0,14
815,207	0,14
815,598	0,14
815,989	0,14
816,38	0,14
816,771	0,14
817,162	0,14
817,553	0,14
817,944	0,14
818,334	0,14
818,725	0,14
819,115	0,14
819,506	0,14
819,896	0,14
820,287	0,14
820,677	0,14
821,067	0,14
821,457	0,14
821,848	0,14
822,238	0,14
822,628	0,14
823,018	0,14
823,408	0,14
823,797	0,14
824,187	0,14
824,577	0,14
824,967	0,14
825,356	0,14
825,746	0,14
826,135	0,14
826,525	0,14
826,914	0,14
827,304	0,14
827,693	0,14
828,082	0,15
828,471	0,14
828,86	0,14
829,249	0,14
829,638	0,14
830,027	0,14
830,416	0,14
830,805	0,15
831,194	0,14
831,582	0,15
831,971	0,15
832,36	0,14
832,748	0,14
833,137	0,15
833,525	0,14
833,914	0,15
834,302	0,15
834,69	0,15
835,078	0,14
835,466	0,14
835,854	0,15
836,243	0,15
836,63	0,15
837,018	0,15
837,406	0,15
837,794	0,14
838,182	0,14
838,569	0,14
838,957	0,14
839,345	0,15
839,732	0,14
840,12	0,15
840,507	0,14
840,894	0,15
841,282	0,15
841,669	0,15
842,056	0,15
842,443	0,15
842,83	0,15
843,217	0,14
843,604	0,15
843,991	0,14
844,378	0,14
844,764	0,14
845,151	0,15
845,538	0,15
845,924	0,15
846,311	0,15
846,697	0,14
847,084	0,15
847,47	0,15
847,856	0,14
848,242	0,14
848,629	0,15
849,015	0,15
849,401	0,14
849,787	0,14
850,173	0,15
850,559	0,14
850,944	0,15
851,33	0,15
851,716	0,15
852,102	0,15
852,487	0,15
852,873	0,15
853,258	0,15
853,644	0,14
854,029	0,14
854,414	0,14
854,799	0,14
855,185	0,15
855,57	0,15
855,955	0,15
856,34	0,14
856,725	0,15
857,11	0,14
857,495	0,14
857,879	0,15
858,264	0,15
858,649	0,15
859,033	0,15
859,418	0,15
859,802	0,15
860,187	0,14
860,571	0,15
860,955	0,15
861,34	0,14
861,724	0,15
862,108	0,15
862,492	0,15
862,876	0,15
863,26	0,15
863,644	0,14
864,028	0,15
864,412	0,15
864,795	0,15
865,179	0,15
865,563	0,15
865,946	0,14
866,33	0,15
866,713	0,15
867,097	0,15
867,48	0,15
867,863	0,15
868,246	0,15
868,629	0,15
869,013	0,15
869,396	0,15
869,779	0,15
870,161	0,15
870,544	0,15
870,927	0,15
871,31	0,15
871,693	0,15
872,075	0,15
872,458	0,15
872,84	0,15
873,223	0,15
873,605	0,15
873,987	0,15
874,37	0,15
874,752	0,15
875,134	0,15
875,516	0,15
875,898	0,15
876,28	0,15
876,662	0,15
877,044	0,15
877,426	0,15
877,807	0,15
878,189	0,15
878,571	0,15
878,952	0,15
879,334	0,15
879,715	0,15
880,097	0,15
880,478	0,15
880,859	0,15
881,24	0,15
881,622	0,15
882,003	0,15
882,384	0,16
882,765	0,15
883,146	0,16
883,526	0,16
883,907	0,16
884,288	0,16
884,669	0,16
885,049	0,16
885,43	0,16
885,81	0,16
886,191	0,16
886,571	0,16
886,952	0,16
887,332	0,16
887,712	0,16
888,092	0,16
888,472	0,16
888,852	0,16
889,232	0,16
889,612	0,16
889,992	0,16
890,372	0,16
890,752	0,16
891,131	0,16
891,511	0,16
891,89	0,17
892,27	0,17
892,649	0,17
893,029	0,17
893,408	0,17
893,787	0,17
894,167	0,17
894,546	0,17
894,925	0,17
895,304	0,17
895,683	0,17
896,062	0,17
896,441	0,17
896,819	0,17
897,198	0,17
897,577	0,17
897,955	0,17
898,334	0,17
898,712	0,17
899,091	0,17
899,469	0,17
899,848	0,17
900,226	0,17
900,604	0,17
900,982	0,17
901,36	0,17
901,738	0,17
902,116	0,17
902,494	0,18
902,872	0,17
903,25	0,18
903,628	0,18
904,005	0,18
904,383	0,18
904,76	0,18
905,138	0,18
905,515	0,18
905,893	0,18
906,27	0,18
906,647	0,18
907,024	0,19
907,402	0,18
907,779	0,19
908,156	0,19
908,533	0,19
908,91	0,19
909,286	0,19
909,663	0,19
910,04	0,19
910,417	0,19
910,793	0,19
911,17	0,19
911,546	0,19
911,923	0,19
912,299	0,19
912,675	0,19
913,051	0,19
913,428	0,19
913,804	0,2
914,18	0,2
914,556	0,2
914,932	0,2
915,308	0,2
915,683	0,2
916,059	0,2
916,435	0,2
916,811	0,2
917,186	0,2
917,562	0,2
917,937	0,2
918,313	0,2
918,688	0,2
919,063	0,2
919,438	0,21
919,814	0,21
920,189	0,21
920,564	0,21
920,939	0,21
921,314	0,21
921,689	0,21
922,063	0,21
922,438	0,21
922,813	0,21
923,187	0,21
923,562	0,21
923,936	0,21
924,311	0,21
924,685	0,21
925,06	0,21
925,434	0,21
925,808	0,21
926,182	0,22
926,556	0,22
926,93	0,22
927,304	0,21
927,678	0,22
928,052	0,22
928,426	0,21
928,8	0,22
929,173	0,22
929,547	0,22
929,92	0,22
930,294	0,22
930,667	0,22
931,041	0,22
931,414	0,22
931,787	0,22
932,161	0,22
932,534	0,23
932,907	0,22
933,28	0,22
933,653	0,22
934,026	0,22
934,398	0,23
934,771	0,23
935,144	0,23
935,517	0,23
935,889	0,23
936,262	0,23
936,634	0,23
937,007	0,22
937,379	0,23
937,751	0,23
938,123	0,23
938,496	0,23
938,868	0,23
939,24	0,23
939,612	0,23
939,984	0,23
940,355	0,23
940,727	0,23
941,099	0,23
941,471	0,23
941,842	0,23
942,214	0,23
942,585	0,23
942,957	0,23
943,328	0,23
943,7	0,24
944,071	0,23
944,442	0,23
944,813	0,23
945,184	0,23
945,555	0,23
945,926	0,24
946,297	0,23
946,668	0,23
947,039	0,24
947,409	0,24
947,78	0,23
948,151	0,23
948,521	0,24
948,892	0,23
949,262	0,24
949,633	0,23
950,003	0,24
950,373	0,23
950,743	0,23
951,113	0,23
951,483	0,24
951,853	0,23
952,223	0,23
952,593	0,23
952,963	0,23
953,333	0,24
953,702	0,24
954,072	0,24
954,442	0,23
954,811	0,24
955,181	0,23
955,55	0,24
955,919	0,23
956,289	0,23
956,658	0,23
957,027	0,24
957,396	0,23
957,765	0,24
958,134	0,24
958,503	0,24
958,872	0,23
959,24	0,24
959,609	0,23
959,978	0,24
960,346	0,23
960,715	0,23
961,083	0,23
961,452	0,23
961,82	0,24
962,188	0,24
962,557	0,23
962,925	0,23
963,293	0,22
963,661	0,22
964,029	0,23
964,397	0,24
964,765	0,22
965,133	0,21
965,5	0,22
965,868	0,21
966,236	0,22
966,603	0,22
966,971	0,22
967,338	0,22
967,706	0,21
968,073	0,21
968,44	0,22
968,807	0,22
969,174	0,22
969,542	0,2
969,909	0,21
970,275	0,21
970,642	0,22
971,009	0,21
971,376	0,22
971,743	0,22
972,109	0,22
972,476	0,21
972,842	0,21
973,209	0,2
973,575	0,21
973,942	0,21
974,308	0,2
974,674	0,21
975,04	0,2
975,406	0,19
975,772	0,2
976,138	0,2
976,504	0,2
976,87	0,21
977,236	0,21
977,602	0,19
977,967	0,21
978,333	0,2
978,698	0,2
979,064	0,2
979,429	0,22
979,795	0,2
980,16	0,2
980,525	0,23
980,89	0,21
981,255	0,21
981,621	0,2
981,986	0,21
982,35	0,21
982,715	0,19
983,08	0,2
983,445	0,2
983,81	0,2
984,174	0,19
984,539	0,2
984,903	0,19
985,268	0,21
985,632	0,21
985,996	0,2
986,361	0,22
986,725	0,21
987,089	0,2
987,453	0,21
987,817	0,21
988,181	0,2
988,545	0,22
988,909	0,2
989,272	0,2
989,636	0,2
990	0,21
990,363	0,19
990,727	0,2
991,09	0,2
991,454	0,22
991,817	0,2
992,18	0,2
992,543	0,19
992,907	0,21
993,27	0,2
993,633	0,2
993,996	0,2
994,359	0,19
994,721	0,21
995,084	0,19
995,447	0,18
995,81	0,21
996,172	0,19
996,535	0,21
996,897	0,2
997,259	0,19
997,622	0,18
997,984	0,19
998,346	0,19
998,708	0,21
999,071	0,2
999,433	0,23
999,795	0,21
1000,156	0,19
1000,518	0,2
1000,88	0,18
1001,242	0,19
1001,603	0,2
1001,965	0,19
1002,327	0,19
1002,688	0,19
1003,049	0,19
1003,411	0,18
1003,772	0,18
1004,133	0,19
1004,495	0,19
1004,856	0,2
1005,217	0,22
1005,578	0,2
1005,939	0,19
1006,299	0,19
1006,66	0,2
1007,021	0,19
1007,382	0,2
1007,742	0,2
1008,103	0,19
1008,463	0,18
1008,824	0,21
1009,184	0,2
1009,544	0,21
1009,904	0,21
1010,265	0,19
1010,625	0,18
1010,985	0,18
1011,345	0,2
1011,705	0,17
1012,065	0,18
1012,424	0,2
1012,784	0,17
1013,144	0,18
1013,503	0,19
1013,863	0,18
1014,222	0,15
1014,582	0,19
1014,941	0,19
1015,3	0,19
1015,66	0,17
1016,019	0,21
1016,378	0,17
1016,737	0,19
1017,096	0,18
1017,455	0,17
1017,814	0,19
1018,173	0,17
1018,531	0,21
1018,89	0,2
1019,249	0,18
1019,607	0,19
1019,966	0,2
1020,324	0,17
1020,682	0,19
1021,041	0,21
1021,399	0,18
1021,757	0,18
1022,115	0,17
1022,473	0,19
1022,831	0,16
1023,189	0,18
1023,547	0,18
1023,905	0,18
1024,263	0,19
1024,62	0,17
1024,978	0,18
1025,335	0,18
1025,693	0,19
1026,05	0,18
1026,408	0,18
1026,765	0,19
1027,122	0,17
1027,479	0,2
1027,837	0,17
1028,194	0,18
1028,551	0,19
1028,908	0,18
1029,264	0,16
1029,621	0,18
1029,978	0,18
1030,335	0,16
1030,691	0,18
1031,048	0,16
1031,404	0,17
1031,761	0,17
1032,117	0,17
1032,473	0,18
1032,83	0,2
1033,186	0,16
1033,542	0,19
1033,898	0,18
1034,254	0,18
1034,61	0,18
1034,966	0,18
