Data from Subt2_16-00-31-424.txt Node
Date: Wed Apr 21 16:00:31 CEST 2021
User: au643642
Spectrometer: FLMS05507
Trigger mode: 0
Integration Time (sec): 1,000000E-3
Scans to average: 10
Electric dark correction enabled: true
Nonlinearity correction enabled: false
Boxcar width: 0
XAxis mode: Pixels
Number of Pixels in Spectrum: 2048
>>>>>Begin Spectral Data<<<<<
0	34,55
1	34,55
2	34,55
3	73,64
4	55,38
5	19,34
6	18,64
7	7,64
8	-70,77
9	13,49
10	-40,11
11	-65,15
12	-4,07
13	3,89
14	111,79
15	8,81
16	-18,34
17	8,81
18	-16,94
19	-24,9
20	47,89
21	-12,49
22	-75,92
23	-47,13
24	-11,56
25	-1,49
26	-9,22
27	104,3
28	13,96
29	14,19
30	-20,68
31	-54,15
32	20,27
33	-24,66
34	17,7
35	-28,41
36	-12,96
37	7,87
38	-11,32
39	44,15
40	-31,22
41	-27,47
42	13,02
43	17,23
44	39,94
45	-40,11
46	26,36
47	40,4
48	-75,22
49	31,28
50	57,72
51	-38,71
52	-12,02
53	7,87
54	47,89
55	-14,6
56	-16,47
57	3,42
58	-19,98
59	72,7
60	39,7
61	-30,28
62	10,21
63	-9,45
64	-13,19
65	-19,75
66	20,74
67	-84,35
68	-44,56
69	52,11
70	74,11
71	17,7
72	37,59
73	-0,32
74	-23,96
75	-52,52
76	67,09
77	47,66
78	16,53
79	-15,3
80	-9,45
81	-37,07
82	22,85
83	47,89
84	64,98
85	-4,07
86	72
87	9,51
88	-24,9
89	18,4
90	1,08
91	26,83
92	115,53
93	24,96
94	-49,47
95	47,43
96	-23,26
97	35,96
98	34,79
99	-6,41
100	-56,26
101	-49,94
102	0,15
103	-1,49
104	-68,43
105	-12,26
106	6,7
107	-44,09
108	-48,77
109	35,02
110	-0,56
111	48,13
112	-0,79
113	24,25
114	-45,03
115	52,11
116	7,17
117	59,83
118	8,57
119	-11,79
120	0,15
121	32,45
122	-19,98
123	77,85
124	-15,3
125	70,36
126	40,64
127	35,49
128	-11,32
129	31,51
130	50,23
131	8,81
132	-37,77
133	-19,05
134	-40,81
135	-64,92
136	-13,9
137	19,34
138	37,36
139	7,17
140	43,68
141	-13,66
142	64,51
143	-61,64
144	61,23
145	-8,75
146	-24,66
147	-35,43
148	48,13
149	28
150	-15,07
151	13,49
152	-35,66
153	10,44
154	-4,07
155	-27
156	-11,09
157	35,25
158	72,23
159	77,62
160	33,62
161	75,04
162	-52,75
163	46,02
164	-28,17
165	18,87
166	57,26
167	-60,47
168	11,85
169	31,28
170	-4,3
171	-86,22
172	-4,3
173	-41,05
174	-23,73
175	59,36
176	-10,85
177	-20,22
178	-48,07
179	68,49
180	-13,9
181	-56,73
182	24,25
183	-49,94
184	11,61
185	11,15
186	35,02
187	9,98
188	-42,92
189	35,72
190	68,02
191	7,87
192	9,04
193	-27,71
194	9,51
195	5,06
196	-53,45
197	-4,53
198	-54,39
199	13,49
200	2,72
201	18,17
202	50
203	-39,88
204	-36,6
205	79,72
206	-8,75
207	-8,28
208	-45,03
209	-34,26
210	-22,56
211	-41,28
212	-27
213	-8,51
214	41,34
215	3,19
216	-4,3
217	-40,81
218	11,85
219	-10,15
220	30,57
221	20,74
222	77,62
223	40,4
224	-5,47
225	-18,58
226	-17,64
227	-10,39
228	7,4
229	59,83
230	-1,02
231	6,47
232	42,51
233	39,47
234	84,17
235	37,13
236	20,04
237	13,96
238	-3,13
239	38,3
240	-47,37
241	24,72
242	-14,6
243	26,36
244	19,57
245	24,96
246	24,96
247	28,47
248	27,3
249	38,3
250	16,3
251	-2,9
252	3,42
253	-37,77
254	35,25
255	6,93
256	-32,62
257	-8,05
258	44,85
259	-11,56
260	51,17
261	-46,2
262	24,96
263	-15,07
264	-24,66
265	73,41
266	5,3
267	-11,79
268	61,94
269	-30,75
270	-24,2
271	-10,85
272	-35,9
273	4,59
274	47,66
275	-13,66
276	-38,47
277	-23,03
278	36,66
279	-23,49
280	12,32
281	-6,88
282	6
283	-3,36
284	-51,81
285	38,77
286	-38,24
287	3,19
288	-3,83
289	-32,39
290	-9,92
291	8,1
292	10,21
293	44,85
294	-24,2
295	19,1
296	3,42
297	9,27
298	-8,75
299	96,58
300	-44,56
301	-38,71
302	34,08
303	73,64
304	-43,86
305	-30,98
306	-14,83
307	-37,3
308	18,64
309	-35,2
310	43,68
311	-12,26
312	-77,56
313	21,91
314	-18,58
315	64,28
316	-25,13
317	-15,77
318	-27,71
319	-2,43
320	14,89
321	5,3
322	3,89
323	-50,41
324	2,25
325	34,55
326	-9,68
327	-23,73
328	77,85
329	24,02
330	7,17
331	-3,83
332	83
333	-16,71
334	-57,66
335	-28,17
336	46,25
337	-45,73
338	-67,03
339	-53,69
340	6,93
341	20,98
342	8,81
343	12,08
344	-25,83
345	27,53
346	38,3
347	4,13
348	-8,28
349	-21,62
350	-2,43
351	11,38
352	-7,34
353	31,28
354	-36,37
355	-93,48
356	48,83
357	-87,16
358	24,72
359	-3,36
360	-3,13
361	24,25
362	14,42
363	29,64
364	110,85
365	3,42
366	-62,58
367	-26,07
368	-38,71
369	10,44
370	-17,41
371	-18,58
372	21,21
373	23,08
374	6,93
375	-19,98
376	-18,11
377	102,66
378	42,04
379	46,72
380	18,64
381	-27,24
382	16,76
383	20,74
384	-12,96
385	53,51
386	17
387	83,7
388	-0,32
389	8,81
390	3,42
391	-5,94
392	-18,81
393	-16,71
394	-25,6
395	31,74
396	78,09
397	23,08
398	53,51
399	2,72
400	24,72
401	13,02
402	17,23
403	69,43
404	-10,62
405	59,83
406	-4,77
407	38,3
408	-19,05
409	7,4
410	-31,69
411	28,93
412	14,89
413	22,15
414	90,96
415	17,93
416	19,81
417	-3,13
418	-19,28
419	-1,73
420	17,7
421	-16,24
422	51,87
423	20,51
424	56,32
425	7,87
426	54,21
427	39,94
428	43,45
429	-30,98
430	-38
431	45,55
432	-48,77
433	-19,28
434	-3,6
435	19,81
436	45,32
437	42,51
438	16,06
439	-20,45
440	-18,34
441	0,15
442	-28,64
443	87,92
444	-30,98
445	-53,22
446	34,79
447	-42,92
448	-71,01
449	52,11
450	67,09
451	50,23
452	11,15
453	24,25
454	14,66
455	14,19
456	42,74
457	-14,13
458	8,1
459	-15,54
460	-70,07
461	-51,11
462	52,11
463	14,66
464	76,68
465	30,11
466	47,19
467	66,38
468	74,34
469	-73,58
470	-21,85
471	-49,94
472	-1,73
473	4,83
474	-29,58
475	-29,11
476	-58,37
477	-67,5
478	-30,98
479	52,81
480	-6,88
481	-13,19
482	36,89
483	51,87
484	48,13
485	76,92
486	-9,22
487	-8,28
488	30,81
489	-11,56
490	21,45
491	18,87
492	-5,24
493	13,96
494	-27,71
495	-27,47
496	61,23
497	6,47
498	-35,43
499	37,59
500	-12,49
501	-27,71
502	38,77
503	-63,52
504	2,95
505	-49,71
506	-15,77
507	-1,02
508	-12,73
509	-14,13
510	35,02
511	-41,52
512	30,34
513	44,38
514	-9,92
515	-12,96
516	14,42
517	3,19
518	-56,96
519	-43,39
520	-5,47
521	-34,73
522	1,32
523	-93,71
524	-49,71
525	-58,84
526	-13,19
527	-0,32
528	-31,69
529	-65,15
530	-84,58
531	-52,52
532	-70,54
533	15,36
534	-32,62
535	-97,22
536	-40,34
537	-101,2
538	-59,77
539	-129,99
540	-70,54
541	-44,56
542	-42,22
543	-82,01
544	-58,13
545	-195,29
546	-298,97
547	-356,32
548	-351,87
549	-281,42
550	-168,37
551	-123,43
552	-109,86
553	-57,66
554	-115,24
555	-170,95
556	-57,2
557	-77,09
558	-128,58
559	-145,2
560	-82,24
561	-86,69
562	-166,27
563	-120,86
564	-117,11
565	-197,16
566	-136,07
567	-140,29
568	-174,22
569	-101,43
570	-105,41
571	-126,94
572	-194,82
573	-203,48
574	-111,5
575	-189,67
576	-106,35
577	-189,2
578	-149,18
579	-212,14
580	-174,22
581	-203,95
582	-225,48
583	-290,31
584	-231,1
585	-235,55
586	-221,74
587	-210,97
588	-205,12
589	-168,14
590	-191,31
591	-236,25
592	-272,06
593	-228,76
594	-274,4
595	-212,61
596	-236,72
597	-252,63
598	-258,95
599	-217,52
600	-228,52
601	-254,97
602	-248,89
603	-171,65
604	-213,08
605	-259,65
606	-201,14
607	-183,12
608	-270,19
609	-294,29
610	-228,76
611	-199,97
612	-248,42
613	-243,04
614	-276,97
615	-261,53
616	-278,61
617	-269,95
618	-396,34
619	-227,12
620	-271,36
621	-280,72
622	-268,31
623	-254,27
624	-286,8
625	-212,61
626	-300,14
627	-215,18
628	-282,59
629	-240,93
630	-285,63
631	-255,91
632	-223,37
633	-231,57
634	-222,2
635	-283,29
636	-305,76
637	-234,84
638	-289,61
639	-278,38
640	-318,63
641	-344,85
642	-279,31
643	-203,48
644	-293,36
645	-303,89
646	-273,7
647	-262,93
648	-290,08
649	-357,49
650	-303,89
651	-333,85
652	-431,68
653	-344,38
654	-358,19
655	-308,57
656	-251,7
657	-332,21
658	-387,68
659	-319,57
660	-327,76
661	-399,38
662	-330,81
663	-408,51
664	-465,62
665	-454,39
666	-399,15
667	-426,53
668	-419,75
669	-438,94
670	-351,64
671	-389,79
672	-424,19
673	-372,23
674	-356,79
675	-390,49
676	-334,08
677	-314,42
678	-206,76
679	-357,25
680	-286,34
681	-276,04
682	-189,2
683	-278,85
684	-290,55
685	-224,78
686	-232,27
687	-207,69
688	-219,4
689	-247,25
690	-204,42
691	-216,59
692	-193,18
693	-160,41
694	-176,1
695	-97,22
696	-164,39
697	-237,65
698	-157,37
699	-128,82
700	-111,97
701	-126,48
702	-151,52
703	-132,33
704	-179,61
705	-153,39
706	-86,92
707	-150,58
708	-90,9
709	-148,71
710	-146,61
711	-91,6
712	-50,88
713	-157,14
714	-58,13
715	-42,45
716	-57,66
717	-108,45
718	-109,62
719	-37,07
720	-85,28
721	-60,71
722	-75,92
723	-101,43
724	-66,56
725	-80,13
726	-79,67
727	-47,6
728	-108,92
729	-38,71
730	-76,86
731	-111,73
732	-37,54
733	4,13
734	-42,92
735	14,89
736	58,43
737	-35,43
738	-39,41
739	-35,66
740	-45,03
741	-110,8
742	-45,96
743	0,38
744	21,21
745	21,91
746	-91,84
747	17
748	-42,69
749	-17,41
750	4,59
751	-62,35
752	-2,43
753	12,32
754	-69,84
755	74,58
756	-38,71
757	42,28
758	-68,67
759	-69,6
760	14,19
761	49,3
762	-29,58
763	32,21
764	-31,69
765	18,87
766	2,02
767	13,72
768	-39,64
769	49,3
770	-29,81
771	30,57
772	14,42
773	-105,65
774	20,74
775	-0,56
776	12,32
777	-16,47
778	-14,37
779	9,74
780	114,36
781	5,3
782	21,21
783	3,89
784	36,89
785	-8,51
786	13,25
787	-45,96
788	64,51
789	53,04
790	-0,32
791	-13,43
792	-59,3
793	-40,11
794	-39,88
795	-33,09
796	34,79
797	9,51
798	55,38
799	-48,77
800	0,85
801	-27,71
802	-41,75
803	-73,35
804	-10,85
805	-100,5
806	-48,77
807	22,85
808	5,76
809	-34,03
810	21,68
811	-45,26
812	28,93
813	14,89
814	48,83
815	36,19
816	11,15
817	48,36
818	47,89
819	-43,62
820	-26,54
821	13,96
822	-9,45
823	13,49
824	49,3
825	24,72
826	47,89
827	49,06
828	8,81
829	88,62
830	68,96
831	3,19
832	94,47
833	40,87
834	27,06
835	57,02
836	23,08
837	33,62
838	-34,03
839	80,19
840	97,04
841	84,41
842	9,04
843	-3,83
844	-0,79
845	19,1
846	66,38
847	83
848	-20,68
849	37,83
850	47,89
851	48,36
852	14,89
853	15,59
854	18,64
855	-12,49
856	0,15
857	18,87
858	74,58
859	89,09
860	-8,98
861	37,13
862	100,09
863	-19,98
864	56,79
865	6,47
866	-47,13
867	0,38
868	65,68
869	23,08
870	-7,34
871	26,83
872	49,77
873	94,47
874	-36,37
875	-5,94
876	-8,05
877	28
878	41,81
879	24,25
880	25,89
881	-11,56
882	43,91
883	2,95
884	-0,56
885	23,32
886	-12,96
887	30,57
888	-44,32
889	-2,9
890	11,61
891	2,49
892	9,27
893	6,7
894	-16,24
895	-66,09
896	8,57
897	19,34
898	39,94
899	-10,85
900	-14,37
901	50,7
902	-12,26
903	15,13
904	15,59
905	73,64
906	19,1
907	11,38
908	-9,22
909	23,32
910	43,91
911	84,17
912	34,55
913	50,7
914	43,68
915	10,21
916	15,13
917	48,36
918	51,17
919	61,47
920	34,08
921	41,11
922	-10,15
923	31,51
924	-9,22
925	107,81
926	22,15
927	53,28
928	42,98
929	-63,98
930	-8,28
931	78,79
932	-47,37
933	13,49
934	101,26
935	63,11
936	43,45
937	6,7
938	40,87
939	22,15
940	-1,96
941	5,76
942	44,38
943	20,98
944	-16,24
945	-47,83
946	39,7
947	19,81
948	7,17
949	70,6
950	-11,79
951	41,34
952	-45,49
953	-10,85
954	41,11
955	41,11
956	33,85
957	-1,26
958	61,94
959	12,79
960	-23,96
961	-47,37
962	25,66
963	-29,81
964	23,32
965	32,45
966	36,19
967	57,72
968	43,68
969	26,36
970	21,45
971	55,85
972	-51,11
973	0,61
974	10,44
975	108,75
976	15,36
977	24,02
978	28,93
979	7,87
980	100,56
981	-1,73
982	43,91
983	-1,96
984	8,34
985	-31,92
986	-1,73
987	29,4
988	-5
989	11,15
990	38,06
991	3,89
992	89,32
993	20,27
994	34,08
995	10,68
996	-55,09
997	22,85
998	-11,79
999	-3,6
1000	39,23
1001	-58,37
1002	57,02
1003	31,28
1004	67,09
1005	-20,45
1006	-110,09
1007	28,23
1008	33,62
1009	-5,47
1010	-25,37
1011	-3,83
1012	64,98
1013	44,62
1014	41,81
1015	40,87
1016	-18,34
1017	37,59
1018	-15,3
1019	-2,19
1020	80,19
1021	13,72
1022	25,42
1023	49,06
1024	120,68
1025	1,55
1026	-7,34
1027	-7,58
1028	-0,32
1029	49,3
1030	49,06
1031	-26,3
1032	-7,11
1033	2,95
1034	-11,32
1035	6,47
1036	-43,62
1037	-18,34
1038	-29,58
1039	-32,15
1040	58,19
1041	-21,15
1042	39,94
1043	15,59
1044	13,25
1045	5,06
1046	52,34
1047	65,68
1048	-12,26
1049	-0,79
1050	28,23
1051	-3,13
1052	-2,66
1053	-15,07
1054	0,38
1055	-68,43
1056	20,27
1057	51,64
1058	111,32
1059	28,23
1060	-13,9
1061	17,7
1062	33,62
1063	23,55
1064	73,64
1065	48,83
1066	-34,26
1067	-79,2
1068	5,53
1069	13,25
1070	69,89
1071	-15,07
1072	-1,73
1073	34,08
1074	-29,34
1075	24,25
1076	24,25
1077	11,61
1078	-49,24
1079	15,83
1080	19,34
1081	-53,69
1082	-40,58
1083	0,15
1084	20,51
1085	50,7
1086	2,25
1087	-57,66
1088	-37,07
1089	4,13
1090	35,02
1091	14,42
1092	7,4
1093	-23,26
1094	3,89
1095	4,59
1096	20,98
1097	32,68
1098	10,44
1099	24,25
1100	3,89
1101	-67,73
1102	0,85
1103	24,72
1104	11,61
1105	47,43
1106	61,7
1107	89,09
1108	2,25
1109	28,7
1110	50
1111	35,25
1112	33,85
1113	-37,77
1114	7,17
1115	6,93
1116	-1,02
1117	-71,94
1118	41,57
1119	-24,43
1120	51,4
1121	-5,94
1122	10,68
1123	16,06
1124	-42,45
1125	-17,88
1126	-24,43
1127	43,45
1128	-6,88
1129	-91,37
1130	37,36
1131	1,32
1132	25,66
1133	39,23
1134	-20,92
1135	-11,32
1136	28,23
1137	-34,26
1138	-26,77
1139	0,15
1140	30,11
1141	50,23
1142	65,92
1143	5,06
1144	-33,56
1145	-11,32
1146	42,74
1147	68,49
1148	45,79
1149	-39,41
1150	20,98
1151	11,85
1152	-1,26
1153	-19,28
1154	50,7
1155	-46,66
1156	38,3
1157	62,87
1158	36,89
1159	-34,26
1160	-24,66
1161	53,51
1162	30,81
1163	-1,96
1164	100,56
1165	-46,43
1166	7,17
1167	14,19
1168	-20,68
1169	2,95
1170	-3,6
1171	-82,94
1172	-16,94
1173	45,79
1174	16,3
1175	95,17
1176	-17,17
1177	-18,58
1178	40,87
1179	-9,68
1180	20,04
1181	38,06
1182	0,61
1183	-38,94
1184	12,79
1185	-1,02
1186	30,34
1187	20,27
1188	18,64
1189	-41,28
1190	33,85
1191	1,08
1192	-43,39
1193	-49,47
1194	-28,64
1195	-17,88
1196	-3,13
1197	21,45
1198	57,49
1199	64,51
1200	44,15
1201	25,42
1202	17,23
1203	8,1
1204	-38,24
1205	-45,26
1206	-19,05
1207	63,11
1208	-16,71
1209	-25,6
1210	8,57
1211	22,62
1212	19,81
1213	-13,66
1214	29,87
1215	37,13
1216	-34,73
1217	34,55
1218	14,19
1219	78,32
1220	-33,09
1221	45,79
1222	-33,79
1223	73,87
1224	23,08
1225	3,89
1226	16,06
1227	62,17
1228	-28,41
1229	18,17
1230	-4,07
1231	64,75
1232	-16,47
1233	9,98
1234	57,72
1235	39,7
1236	-15,07
1237	38,06
1238	17,93
1239	-11,56
1240	-27
1241	32,68
1242	-32,86
1243	-15,07
1244	32,68
1245	30,34
1246	22,38
1247	54,21
1248	31,28
1249	22,85
1250	-1,26
1251	54,68
1252	94
1253	-2,66
1254	-15,3
1255	23,55
1256	-46,2
1257	-0,32
1258	-3,83
1259	15,13
1260	70,6
1261	28
1262	-50,41
1263	54,68
1264	-43,15
1265	-11,32
1266	-22,79
1267	-25,13
1268	54,45
1269	-28,88
1270	57,26
1271	-19,98
1272	98,68
1273	-34,49
1274	-14,37
1275	19,34
1276	-5,24
1277	-1,96
1278	-22,79
1279	-3,13
1280	23,79
1281	-3,6
1282	69,66
1283	-27,94
1284	24,96
1285	54,91
1286	21,21
1287	5,06
1288	-47,37
1289	27,06
1290	-52,52
1291	19,81
1292	-31,69
1293	-18,58
1294	23,79
1295	-74,75
1296	36,66
1297	-84,35
1298	-31,45
1299	54,68
1300	0,15
1301	6,47
1302	11,38
1303	-10,15
1304	-4,3
1305	42,51
1306	17,47
1307	37,36
1308	-13,43
1309	22,38
1310	-24,43
1311	-43,15
1312	30,57
1313	14,42
1314	-14,13
1315	-71,71
1316	41,11
1317	42,28
1318	17,47
1319	-18,58
1320	33,62
1321	39,7
1322	60,3
1323	-10,15
1324	-11,32
1325	0,61
1326	-57,43
1327	-41,28
1328	52,11
1329	-43,39
1330	-37,07
1331	-13,19
1332	-33,09
1333	-20,68
1334	5,53
1335	3,42
1336	-2,66
1337	11,15
1338	-50,41
1339	-78,26
1340	6,93
1341	-21,62
1342	-38,94
1343	31,74
1344	-22,56
1345	21,45
1346	-104,71
1347	-66,09
1348	-68,2
1349	-39,17
1350	-7,81
1351	-83,18
1352	-29,81
1353	-45,03
1354	-18,58
1355	-41,52
1356	2,95
1357	-21,39
1358	-105,88
1359	-25,6
1360	-61,18
1361	-18,34
1362	28,7
1363	-25,83
1364	-19,05
1365	-41,98
1366	-59,3
1367	17,93
1368	-9,92
1369	-11,09
1370	-89,03
1371	-56,03
1372	-8,05
1373	19,34
1374	-61,64
1375	-55,79
1376	-54,62
1377	-45,73
1378	-5,24
1379	-65,86
1380	-34,73
1381	-66,32
1382	-46,2
1383	-67,26
1384	-35,9
1385	13,02
1386	-58,13
1387	-28,41
1388	-25,83
1389	-7,34
1390	-8,98
1391	31,51
1392	-50,64
1393	-50,64
1394	-17,41
1395	-42,22
1396	-34,49
1397	-80,37
1398	-53,69
1399	-39,17
1400	24,96
1401	-8,28
1402	-2,9
1403	-45,49
1404	6,23
1405	55,15
1406	17
1407	-45,49
1408	-32,39
1409	29,64
1410	-16,24
1411	-43,62
1412	-52,98
1413	15,36
1414	-36,6
1415	-29,81
1416	5,53
1417	0,15
1418	23,79
1419	-66,09
1420	-13,19
1421	17
1422	-4,53
1423	-8,75
1424	4,13
1425	15,83
1426	-18,11
1427	36,66
1428	50,47
1429	-20,68
1430	6,7
1431	21,21
1432	34,55
1433	-114,54
1434	-86,22
1435	61,23
1436	-0,32
1437	-41,28
1438	-25,6
1439	-3,36
1440	-31,45
1441	45,55
1442	71,53
1443	-23,96
1444	-20,68
1445	1,32
1446	-18,81
1447	2,25
1448	-28,41
1449	-2,43
1450	-49
1451	-7,11
1452	-70,54
1453	-85,28
1454	-51,81
1455	-13,9
1456	26,59
1457	-20,45
1458	0,15
1459	55,38
1460	-31,92
1461	52,34
1462	-49,94
1463	-21,85
1464	-27,47
1465	-1,26
1466	-17,41
1467	-4,53
1468	-78,03
1469	-2,19
1470	-14,13
1471	64,75
1472	-23,49
1473	0,85
1474	-33,79
1475	-42,22
1476	6,93
1477	12,79
1478	-6,88
1479	2,95
1480	-76,16
1481	-43,62
1482	54,21
1483	-22,56
1484	-57,9
1485	-30,98
1486	6,93
1487	-41,05
1488	-0,56
1489	46,96
1490	-66,79
1491	13,02
1492	20,98
1493	28,23
1494	-38,47
1495	9,04
1496	0,38
1497	30,57
1498	85,81
1499	77,62
1500	-38
1501	45,32
1502	-40,58
1503	-18,81
1504	42,98
1505	-8,51
1506	-9,45
1507	-38,24
1508	-24,2
1509	-38,71
1510	-38,24
1511	-6,64
1512	92,83
1513	36,66
1514	-32,86
1515	-18,58
1516	35,72
1517	-14,13
1518	-36,6
1519	59,83
1520	-15,3
1521	-4,07
1522	-95,11
1523	-47,83
1524	40,64
1525	-19,98
1526	-23,26
1527	15,36
1528	5,76
1529	-32,86
1530	75,75
1531	-12,73
1532	-27
1533	-0,56
1534	-27,47
1535	21,68
1536	9,04
1537	-8,28
1538	32,45
1539	-6,41
1540	-60,47
1541	-14,13
1542	-43,62
1543	15,36
1544	8,57
1545	37,36
1546	3,66
1547	-68,43
1548	-23,03
1549	10,91
1550	-48,54
1551	-25,83
1552	-5
1553	20,04
1554	-29,11
1555	31,98
1556	-34,73
1557	24,96
1558	-16,47
1559	31,04
1560	42,74
1561	-43,39
1562	-51,11
1563	44,38
1564	81,83
1565	13,72
1566	3,19
1567	82,07
1568	19,34
1569	-44,56
1570	10,91
1571	-7,11
1572	-55,79
1573	-65,86
1574	-8,28
1575	-32,39
1576	37,59
1577	-2,19
1578	15,59
1579	13,96
1580	-52,98
1581	84,17
1582	-2,19
1583	-103,07
1584	-14,13
1585	-30,05
1586	30,34
1587	-26,3
1588	-32,15
1589	-80,13
1590	34,32
1591	-8,75
1592	1,08
1593	3,66
1594	-34,03
1595	31,04
1596	22,85
1597	25,42
1598	-8,28
1599	22,62
1600	36,42
1601	2,72
1602	-60,94
1603	54,68
1604	2,72
1605	30,11
1606	-6,41
1607	-52,98
1608	32,91
1609	21,21
1610	-45,96
1611	45,55
1612	20,51
1613	16,06
1614	13,02
1615	55,62
1616	0,61
1617	15,13
1618	-8,75
1619	57,72
1620	2,49
1621	-8,51
1622	21,91
1623	6
1624	35,02
1625	29,64
1626	7,64
1627	-8,51
1628	22,38
1629	24,02
1630	25,42
1631	-30,28
1632	5,3
1633	10,91
1634	46,72
1635	5,06
1636	6,93
1637	20,27
1638	42,28
1639	103,36
1640	0,85
1641	-8,28
1642	33,85
1643	-17,88
1644	-35,2
1645	-63,28
1646	24,49
1647	15,83
1648	-28,17
1649	-49,47
1650	95,41
1651	-22,79
1652	9,74
1653	-29,11
1654	1,08
1655	9,04
1656	-23,49
1657	-61,88
1658	-22,09
1659	13,96
1660	18,17
1661	-45,26
1662	-59,54
1663	28,23
1664	-36,13
1665	17
1666	46,72
1667	6
1668	-15,54
1669	4,83
1670	69,89
1671	-4,07
1672	44,15
1673	-85,75
1674	12,55
1675	9,51
1676	31,98
1677	28,93
1678	-26,07
1679	-39,41
1680	58,89
1681	26,36
1682	49,77
1683	-17,41
1684	26,36
1685	58,89
1686	59,83
1687	22,38
1688	-16
1689	8,57
1690	-15,07
1691	4,13
1692	20,51
1693	-22,56
1694	9,04
1695	28,93
1696	8,81
1697	9,04
1698	60,77
1699	36,19
1700	-36,83
1701	21,91
1702	-20,92
1703	10,91
1704	-16
1705	79,26
1706	-12,49
1707	-2,9
1708	-15,3
1709	-44,56
1710	-5,94
1711	15,36
1712	-22,79
1713	-53,22
1714	9,74
1715	29,17
1716	-53,45
1717	-29,81
1718	30,11
1719	20,27
1720	-21,39
1721	32,68
1722	-11,09
1723	-2,66
1724	-29,81
1725	34,32
1726	20,27
1727	-7,81
1728	11,38
1729	-34,03
1730	63,81
1731	-9,92
1732	-24,43
1733	-50,18
1734	25,19
1735	49,3
1736	38,06
1737	8,1
1738	19,1
1739	-7,58
1740	41,81
1741	100,09
1742	-0,32
1743	2,72
1744	24,49
1745	-3,13
1746	-14,13
1747	14,66
1748	-31,69
1749	-30,28
1750	-11,09
1751	-2,66
1752	15,59
1753	62,17
1754	13,96
1755	39,23
1756	88,15
1757	46,72
1758	38,77
1759	34,55
1760	-71,71
1761	8,34
1762	-26,54
1763	53,51
1764	-44,09
1765	19,1
1766	22,38
1767	-55,09
1768	35,25
1769	30,57
1770	-35,9
1771	56,09
1772	72,23
1773	24,49
1774	-2,19
1775	-5,24
1776	-48,3
1777	36,89
1778	19,1
1779	12,79
1780	-12,02
1781	13,49
1782	-56,03
1783	-38,71
1784	26,13
1785	46,25
1786	54,45
1787	-9,92
1788	-65,15
1789	-38,94
1790	-8,51
1791	-16,47
1792	12,79
1793	-10,85
1794	29,64
1795	-18,11
1796	-13,66
1797	14,89
1798	-18,81
1799	-72,64
1800	-26,07
1801	-22,09
1802	46,25
1803	50,23
1804	-14,83
1805	-6,41
1806	-29,81
1807	-31,45
1808	9,04
1809	-8,75
1810	39
1811	-8,98
1812	40,4
1813	18,87
1814	45,32
1815	-27,94
1816	13,49
1817	-29,81
1818	-31,69
1819	4,13
1820	-16,94
1821	52,57
1822	-36,13
1823	25,89
1824	35,25
1825	32,45
1826	-29,11
1827	72
1828	15,13
1829	-17,41
1830	-22,32
1831	10,91
1832	82,77
1833	29,87
1834	-8,75
1835	35,72
1836	-2,19
1837	31,04
1838	-40,34
1839	70,13
1840	-1,73
1841	90,49
1842	-31,92
1843	-1,73
1844	-18,11
1845	-23,96
1846	17,47
1847	-15,54
1848	8,34
1849	7,4
1850	-16,24
1851	32,91
1852	-7,58
1853	13,72
1854	-9,22
1855	22,38
1856	22,15
1857	32,21
1858	29,87
1859	71,77
1860	-16,47
1861	22,85
1862	46,02
1863	25,66
1864	-5,47
1865	33,85
1866	62,4
1867	-15,3
1868	-28,41
1869	-65,15
1870	19,81
1871	41,11
1872	11,61
1873	24,72
1874	-19,51
1875	-58,37
1876	-13,9
1877	-11,56
1878	-43,39
1879	-35,2
1880	54,45
1881	73,17
1882	74,11
1883	-7,81
1884	21,21
1885	73,17
1886	7,4
1887	1,08
1888	55,62
1889	6,23
1890	-24,2
1891	53,74
1892	-23,73
1893	53,74
1894	44,62
1895	39,23
1896	-8,98
1897	38,3
1898	-7,11
1899	31,51
1900	-74,28
1901	-41,75
1902	-6,41
1903	-41,98
1904	18,64
1905	11,38
1906	19,81
1907	-31,22
1908	3,19
1909	-38,71
1910	-41,28
1911	13,96
1912	11,38
1913	57,26
1914	-5,47
1915	41,11
1916	-32,39
1917	15,36
1918	75,04
1919	-15,07
1920	35,72
1921	-107,75
1922	-12,73
1923	-26,54
1924	-12,49
1925	-22,32
1926	-35,9
1927	-39,64
1928	9,51
1929	-33,79
1930	1,78
1931	-40,11
1932	35,96
1933	-20,45
1934	14,66
1935	-42,22
1936	49,53
1937	-30,51
1938	28,93
1939	2,25
1940	-49,24
1941	66,62
1942	57,96
1943	65,92
1944	-73,81
1945	26,36
1946	-25,83
1947	60,3
1948	49,3
1949	41,34
1950	-10,62
1951	76,68
1952	69,66
1953	3,42
1954	-4,07
1955	-10,85
1956	-22,32
1957	-18,11
1958	1,32
1959	-22,56
1960	7,64
1961	-0,79
1962	30,11
1963	-0,09
1964	61,47
1965	40,4
1966	-19,98
1967	-62,35
1968	67,09
1969	-2,9
1970	17,93
1971	-24,9
1972	-8,98
1973	78,55
1974	-20,22
1975	-3,6
1976	3,66
1977	21,21
1978	17,93
1979	-43,39
1980	-11,09
1981	-17,41
1982	0,15
1983	20,51
1984	35,49
1985	66,38
1986	-55,56
1987	49,77
1988	44,85
1989	-51,11
1990	6,7
1991	-54,86
1992	-19,75
1993	27,53
1994	9,98
1995	56,55
1996	0,15
1997	40,64
1998	3,42
1999	-21,15
2000	-19,51
2001	-78,26
2002	-16,71
2003	1,32
2004	5,76
2005	-8,05
2006	-26,07
2007	47,66
2008	8,34
2009	28,93
2010	-28,88
2011	76,68
2012	-41,05
2013	50,23
2014	-37,77
2015	32,68
2016	-34,26
2017	40,4
2018	80,43
2019	63,11
2020	16,3
2021	6,93
2022	-7,58
2023	-14,13
2024	39,23
2025	-8,98
2026	38,77
2027	-52,52
2028	35,96
2029	13,96
2030	-0,32
2031	1,32
2032	-0,09
2033	19,81
2034	13,49
2035	4,36
2036	48,6
2037	16,3
2038	-23,96
2039	41,34
2040	-86,45
2041	12,79
2042	3,66
2043	26,83
2044	5,3
2045	13,72
2046	13,72
2047	13,72
