Data from Subt2_15-58-49-606.txt Node
Date: Wed Apr 21 15:58:49 CEST 2021
User: au643642
Spectrometer: FLMS05507
Trigger mode: 0
Integration Time (sec): 1,000000E-3
Scans to average: 5
Electric dark correction enabled: true
Nonlinearity correction enabled: false
Boxcar width: 0
XAxis mode: Pixels
Number of Pixels in Spectrum: 2048
>>>>>Begin Spectral Data<<<<<
0	39,12
1	39,12
2	39,12
3	85,46
4	60,18
5	-10,5
6	20,86
7	-23,61
8	-47,95
9	41,92
10	-32,5
11	-53,1
12	-6,76
13	2,6
14	104,18
15	30,69
16	-14,25
17	12,43
18	-7,23
19	-28,76
20	11,97
21	3,07
22	-97,57
23	-99,44
24	-23,14
25	18,05
26	-15,18
27	109,8
28	-4,89
29	21,8
30	-67,61
31	-54,04
32	40,52
33	2,14
34	-27,36
35	-54,04
36	-19,87
37	-13,31
38	-32,97
39	-2,08
40	-16,59
41	-38,12
42	26,48
43	22,26
44	21,8
45	-23,61
46	-9,57
47	62,99
48	-106
49	11,03
50	40,52
51	-33,44
52	-36,25
53	-29,7
54	8,22
55	-42,8
56	-53,1
57	-32,97
58	-35,31
59	75,63
60	31,16
61	-33,91
62	-8,16
63	-16,59
64	-27,82
65	-19,4
66	16,65
67	-128,93
68	-79,78
69	3,54
70	67,2
71	2,6
72	14,77
73	4,94
74	-11,91
75	-52,63
76	38,65
77	43,8
78	6,35
79	-18,93
80	12,9
81	-44,67
82	22,73
83	54,56
84	77,97
85	6,35
86	64,86
87	-36,72
88	-16,59
89	-3,95
90	14,31
91	25,07
92	94,82
93	1,67
94	-89,15
95	62,05
96	-55,91
97	51,29
98	25,07
99	-22,21
100	-64,8
101	-52,16
102	-20,8
103	-29,7
104	-89,61
105	-5,35
106	-6,76
107	-49,36
108	-79,78
109	26,48
110	-2,55
111	31,16
112	-15,65
113	-22,21
114	-61,53
115	56,44
116	-17,06
117	82,18
118	-4,42
119	-11,44
120	-21,27
121	7,28
122	-5,82
123	54,56
124	-10,04
125	33,03
126	33,5
127	18,05
128	-17,52
129	-4,89
130	21,8
131	5,88
132	-35,78
133	8,69
134	-47,95
135	-73,23
136	-17,06
137	2,6
138	30,22
139	11,5
140	27,88
141	-23,61
142	49,88
143	-66,21
144	50,35
145	-6,76
146	-32,5
147	-27,82
148	21,8
149	11,97
150	-15,18
151	21,33
152	-75,1
153	-22,67
154	5,41
155	-34,84
156	-16,59
157	11,97
158	60,18
159	71,88
160	2,14
161	42,39
162	-64,8
163	28,35
164	-18,93
165	-15,65
166	6,35
167	-50,29
168	-15,18
169	13,37
170	-10,97
171	-88,68
172	-3,48
173	-69,02
174	-22,67
175	66,27
176	-45,14
177	-25,48
178	-59,65
179	22,26
180	-25,95
181	-67,14
182	34,9
183	-64,8
184	-20,8
185	-1,14
186	62,99
187	-3,48
188	-49,36
189	24,6
190	80,78
191	5,88
192	-4,89
193	-38,12
194	-10,5
195	-28,29
196	-42,8
197	-15,65
198	-31,57
199	6,35
200	-2,55
201	-0,2
202	51,76
203	-51,7
204	-50,29
205	8,69
206	-10,04
207	-10,04
208	-53,1
209	-26,89
210	-33,44
211	-21,74
212	-47,95
213	-1,14
214	43,33
215	27,88
216	3,07
217	-61,99
218	15,71
219	5,88
220	29,29
221	3,07
222	51,29
223	38,65
224	-18,46
225	-22,21
226	-47,48
227	2,6
228	-10,04
229	13,84
230	0,73
231	-17,99
232	26,95
233	72,35
234	34,9
235	41,46
236	-4,42
237	17,58
238	-29,7
239	58,31
240	-56,38
241	0,73
242	-53,1
243	42,39
244	3,07
245	12,9
246	55,03
247	-5,35
248	36,31
249	57,37
250	19,46
251	-15,65
252	4,48
253	-14,72
254	18,52
255	-2,55
256	-47,48
257	71,42
258	63,46
259	0,26
260	66,27
261	-69,48
262	-9,57
263	-23,14
264	-47,02
265	58,31
266	8,69
267	-16,59
268	61,12
269	-24,55
270	-43,27
271	-63,4
272	-72,76
273	16,18
274	26,48
275	-14,72
276	-22,21
277	-25,01
278	55,97
279	-25,95
280	-11,91
281	-2,08
282	3,07
283	-44,21
284	-56,85
285	9,63
286	-29,23
287	-9,1
288	-3,01
289	-52,16
290	-31,1
291	6,82
292	14,31
293	24,14
294	-19,4
295	11,5
296	5,41
297	41,92
298	-24,55
299	91,54
300	-62,46
301	-61,06
302	-4,89
303	93,42
304	-56,38
305	-48,42
306	-7,23
307	3,54
308	-4,89
309	-43,27
310	33,97
311	-15,65
312	-66,21
313	-1,61
314	-32,97
315	32,56
316	17,58
317	22,26
318	-17,99
319	-10,97
320	4,01
321	-29,23
322	-2,55
323	-63,87
324	3,54
325	12,43
326	27,88
327	-4,42
328	50,82
329	30,69
330	10,56
331	-16,59
332	59,24
333	-28,76
334	-54,04
335	-39,53
336	9,63
337	-50,29
338	-54,97
339	-48,89
340	7,28
341	14,31
342	-0,67
343	14,77
344	-17,06
345	58,31
346	23,2
347	-22,67
348	-3,95
349	-46,55
350	-34,84
351	-7,69
352	5,41
353	55,97
354	-11,91
355	-124,72
356	38,18
357	-99,91
358	-17,99
359	-2,08
360	-8,16
361	-18,46
362	1,2
363	-3,95
364	72,35
365	-11,44
366	-48,42
367	-31,1
368	-39,53
369	7,28
370	-2,55
371	-17,52
372	8,22
373	6,35
374	-20,33
375	-42,33
376	6,82
377	70,01
378	16,65
379	31,63
380	43,8
381	-61,99
382	41,92
383	36,78
384	-14,72
385	27,41
386	-17,99
387	80,78
388	-9,1
389	34,9
390	-1,14
391	-8,16
392	-2,55
393	-26,89
394	-6,76
395	19,92
396	116,82
397	22,26
398	9,63
399	-24,08
400	15,71
401	6,82
402	3,54
403	48,48
404	-14,25
405	40,52
406	-15,65
407	33,03
408	-27,82
409	-11,44
410	-24,55
411	30,22
412	5,88
413	14,77
414	87,8
415	22,73
416	42,39
417	27,88
418	-40,93
419	-12,38
420	25,07
421	-21,27
422	70,01
423	34,44
424	67,67
425	-26,42
426	24,6
427	36,78
428	45,2
429	-51,23
430	-26,42
431	29,29
432	-37,19
433	-36,72
434	-10,97
435	32,56
436	29,29
437	9,16
438	-5,35
439	-43,27
440	-7,69
441	-6,29
442	-26,42
443	72,82
444	-31,1
445	-59,19
446	34,44
447	-47,95
448	-69,02
449	39,12
450	74,22
451	25,07
452	-0,67
453	10,09
454	14,77
455	14,77
456	11,97
457	-23,14
458	-7,23
459	-23,14
460	-65,27
461	-51,23
462	33,5
463	45,67
464	65,33
465	40,05
466	4,01
467	70,01
468	42,86
469	-61,99
470	-50,29
471	-47,02
472	-6,29
473	-8,16
474	-49,36
475	-66,21
476	-51,7
477	-54,97
478	-38,59
479	23,67
480	-3,48
481	12,43
482	61,59
483	35,37
484	43,33
485	69,54
486	-18,46
487	-29,23
488	9,63
489	-28,29
490	18,52
491	6,82
492	10,56
493	2,6
494	-53,1
495	-0,2
496	80,78
497	19,46
498	-54,97
499	26,01
500	-15,65
501	-67,14
502	-3,01
503	-68,08
504	15,24
505	-39,06
506	-30,16
507	25,54
508	2,14
509	-23,14
510	-11,44
511	-44,67
512	10,09
513	47,54
514	-8,16
515	-53,57
516	6,35
517	-40,93
518	-62,46
519	-60,59
520	-1,61
521	-42,8
522	-17,52
523	-88,21
524	-40,46
525	-25,48
526	-3,01
527	-18,46
528	-52,16
529	-81,66
530	-69,48
531	-54,04
532	-91,49
533	26,95
534	-53,1
535	-117,23
536	-26,42
537	-106
538	-61,99
539	-122,85
540	-68,08
541	-62,46
542	-44,21
543	-79,78
544	-64,8
545	-198,21
546	-320,86
547	-373,29
548	-379,37
549	-292,77
550	-140,17
551	-114,42
552	-140,17
553	-71,36
554	-132,68
555	-191,19
556	-86,34
557	-101,78
558	-137,83
559	-161,7
560	-101,32
561	-124,72
562	-165,45
563	-114,89
564	-175,28
565	-193,53
566	-136,42
567	-149,53
568	-199,15
569	-113,95
570	-105,53
571	-145,32
572	-194,94
573	-200,55
574	-95,7
575	-248,77
576	-107,4
577	-169,19
578	-129,4
579	-224,9
580	-182,77
581	-149,53
582	-213,19
583	-275,45
584	-264,22
585	-237,54
586	-252,98
587	-199,62
588	-231,45
589	-194,47
590	-193,06
591	-237,07
592	-267,03
593	-248,77
594	-271,24
595	-216
596	-261,41
597	-262,81
598	-268,43
599	-264,69
600	-258,13
601	-260,94
602	-278,73
603	-203,83
604	-238,47
605	-285,75
606	-201,96
607	-164,04
608	-280,13
609	-282,94
610	-260,94
611	-210,38
612	-221,15
613	-241,75
614	-318,05
615	-246,9
616	-307,75
617	-287,15
618	-393,88
619	-228,64
620	-265,15
621	-266,56
622	-278,26
623	-242,68
624	-276,39
625	-242,68
626	-298,86
627	-237,54
628	-280,13
629	-298,39
630	-291,37
631	-216
632	-266,56
633	-238,47
634	-270,77
635	-296,52
636	-311,96
637	-212,26
638	-286,22
639	-311,03
640	-322,26
641	-333,03
642	-264,69
643	-200,55
644	-278,26
645	-317,58
646	-304,94
647	-285,75
648	-284,81
649	-344,26
650	-293,24
651	-341,45
652	-464,1
653	-344,26
654	-369,07
655	-289,96
656	-255,32
657	-351,29
658	-361,12
659	-311,5
660	-330,69
661	-383,12
662	-350,82
663	-429,93
664	-475,33
665	-468,31
666	-429,46
667	-429,46
668	-394,82
669	-443,03
670	-340,05
671	-422,44
672	-405,59
673	-388,27
674	-363,46
675	-407,93
676	-320,86
677	-337,24
678	-240,81
679	-363,46
680	-285,75
681	-289,5
682	-194
683	-328,35
684	-269,83
685	-205,24
686	-193,53
687	-267,49
688	-235,66
689	-236,13
690	-239,41
691	-243,15
692	-180,43
693	-172,94
694	-163,11
695	-61,53
696	-188,38
697	-226,3
698	-165,91
699	-129,4
700	-139,23
701	-157,96
702	-144,38
703	-116,3
704	-170,6
705	-114,89
706	-85,4
707	-144,38
708	-70,42
709	-141,11
710	-144,85
711	-62,46
712	-61,99
713	-201,49
714	-97,1
715	-32,04
716	-63,4
717	-130,34
718	-129,87
719	-42,8
720	-113,02
721	-96,63
722	-126,59
723	-103,66
724	-60,12
725	-61,53
726	-95,23
727	-88,68
728	-77,91
729	-72,29
730	-107,4
731	-123,32
732	-26,89
733	-11,91
734	-35,31
735	17,12
736	53,16
737	-74,17
738	-28,76
739	-45,61
740	-69,02
741	-87,27
742	-66,21
743	-31,57
744	9,63
745	-1,14
746	-103,19
747	0,26
748	-66,68
749	-22,21
750	-17,52
751	-88,68
752	9,16
753	-6,29
754	-36,25
755	67,2
756	-17,99
757	68,14
758	-100,85
759	-87,74
760	-8,63
761	51,76
762	-54,04
763	14,31
764	-49,82
765	11,03
766	-25,95
767	-11,91
768	-38,12
769	46,61
770	-42,33
771	33,97
772	5,41
773	-77,44
774	19,92
775	33,5
776	19,46
777	-32,04
778	-18,46
779	-10,97
780	95,76
781	12,43
782	60,65
783	24,14
784	31,63
785	-9,1
786	13,37
787	-29,7
788	10,09
789	55,5
790	22,73
791	-27,82
792	-48,42
793	-83,53
794	-28,29
795	-24,08
796	8,22
797	8,22
798	56,44
799	-49,36
800	-55,91
801	-47,48
802	-59,65
803	-66,68
804	22,73
805	-64,34
806	-54,97
807	18,99
808	6,82
809	-48,42
810	33,03
811	-36,72
812	1,67
813	-19,4
814	32,56
815	26,48
816	-14,72
817	19,46
818	-6,76
819	-43,27
820	-29,23
821	18,05
822	-11,91
823	39,12
824	40,99
825	9,63
826	54,1
827	22,26
828	2,14
829	40,05
830	20,39
831	-48,89
832	87,8
833	30,22
834	26,48
835	42,86
836	11,03
837	5,88
838	-76,04
839	49,41
840	73,29
841	74,22
842	-0,2
843	-5,35
844	-17,52
845	1,67
846	70,48
847	86,86
848	-27,36
849	-26,42
850	27,88
851	43,8
852	-1,14
853	13,37
854	-15,18
855	-34,38
856	9,63
857	-8,63
858	64,86
859	62,52
860	-13,31
861	15,71
862	89,67
863	-36,25
864	59,71
865	-15,18
866	-47,02
867	-12,38
868	48,48
869	2,14
870	-6,76
871	7,75
872	58,78
873	65,33
874	-65,74
875	-36,25
876	-29,23
877	26,48
878	37,24
879	-7,69
880	25,07
881	9,63
882	40,99
883	-46,55
884	22,26
885	25,54
886	-6,76
887	28,82
888	-25,95
889	-0,2
890	10,09
891	12,43
892	-11,44
893	-10,97
894	-17,52
895	-58,25
896	13,37
897	32,09
898	12,9
899	9,63
900	-22,21
901	58,78
902	-2,55
903	11,5
904	11,03
905	49,88
906	-15,65
907	23,67
908	10,56
909	18,52
910	84,05
911	61,59
912	14,77
913	56,9
914	28,82
915	-20,33
916	34,44
917	40,05
918	37,24
919	33,5
920	0,73
921	31,63
922	1,67
923	19,46
924	-17,99
925	95,29
926	40,99
927	26,01
928	33,5
929	-44,67
930	0,73
931	62,05
932	-24,08
933	24,6
934	92,48
935	48,48
936	58,78
937	-7,23
938	28,82
939	41,92
940	2,14
941	20,39
942	14,77
943	24,14
944	-49,82
945	-43,27
946	11,03
947	40,05
948	14,77
949	57,84
950	-19,87
951	66,73
952	-43,27
953	-39,99
954	57,84
955	22,73
956	47,07
957	26,48
958	21,8
959	-12,84
960	-15,18
961	-74,17
962	40,05
963	-15,18
964	14,77
965	41,46
966	44,73
967	84,05
968	26,01
969	2,6
970	22,26
971	38,18
972	-43,27
973	35,84
974	6,35
975	81,71
976	-13,78
977	30,22
978	21,33
979	-26,89
980	64,39
981	5,41
982	-25,01
983	4,01
984	-17,52
985	-47,95
986	27,88
987	4,01
988	43,8
989	-17,06
990	37,71
991	40,99
992	73,76
993	26,95
994	2,6
995	40,52
996	-83,53
997	38,65
998	4,48
999	2,14
1000	18,99
1001	-61,06
1002	36,78
1003	47,54
1004	47,54
1005	-36,25
1006	-76,51
1007	27,41
1008	42,39
1009	-8,63
1010	-31,1
1011	-33,91
1012	40,05
1013	31,63
1014	27,88
1015	22,73
1016	-34,84
1017	33,03
1018	-7,69
1019	12,43
1020	95,76
1021	0,26
1022	20,39
1023	36,31
1024	114,01
1025	10,56
1026	-22,67
1027	-28,29
1028	21,8
1029	41,46
1030	26,01
1031	-32,5
1032	-8,16
1033	-7,23
1034	-10,5
1035	9,16
1036	-42,33
1037	-1,61
1038	-50,76
1039	-36,25
1040	56,44
1041	8,69
1042	26,95
1043	-2,55
1044	-0,67
1045	-33,44
1046	32,09
1047	39,58
1048	-25,48
1049	-1,14
1050	37,24
1051	-8,16
1052	8,22
1053	-19,87
1054	-14,25
1055	-64,34
1056	5,88
1057	61,12
1058	91,08
1059	37,71
1060	-8,63
1061	-12,84
1062	59,71
1063	34,9
1064	67,67
1065	56,9
1066	-36,72
1067	-56,85
1068	-23,61
1069	-13,31
1070	41,46
1071	-48,42
1072	-8,16
1073	9,63
1074	-41,4
1075	5,41
1076	6,82
1077	35,84
1078	-15,65
1079	13,37
1080	-35,78
1081	-54,51
1082	-30,63
1083	-18,93
1084	30,22
1085	48,01
1086	-18,93
1087	-35,78
1088	-53,1
1089	-30,16
1090	22,26
1091	13,84
1092	2,6
1093	-34,38
1094	-14,72
1095	17,58
1096	21,8
1097	70,48
1098	-19,87
1099	-4,42
1100	-18,46
1101	-97,57
1102	-10,97
1103	-9,1
1104	22,26
1105	53,16
1106	64,86
1107	113,08
1108	0,73
1109	-5,35
1110	23,2
1111	-3,01
1112	18,52
1113	-66,21
1114	1,67
1115	5,88
1116	-31,57
1117	-68,55
1118	18,52
1119	-33,91
1120	40,05
1121	-30,16
1122	0,73
1123	-15,18
1124	-43,27
1125	19,46
1126	-30,16
1127	49,88
1128	-14,25
1129	-94,76
1130	67,2
1131	23,2
1132	26,95
1133	19,46
1134	-19,4
1135	-3,48
1136	1,67
1137	-27,82
1138	7,28
1139	1,67
1140	52,69
1141	34,9
1142	63,46
1143	34,44
1144	1,67
1145	0,73
1146	46,61
1147	34,44
1148	20,39
1149	-43,74
1150	-10,5
1151	-2,08
1152	-36,25
1153	-5,82
1154	32,56
1155	-78,85
1156	24,6
1157	64,86
1158	27,88
1159	-15,18
1160	-27,82
1161	40,99
1162	31,63
1163	-4,42
1164	96,23
1165	-50,29
1166	28,35
1167	7,28
1168	-7,69
1169	-7,69
1170	2,6
1171	-75,57
1172	-32,97
1173	47,54
1174	-32,97
1175	50,35
1176	-32,04
1177	-13,78
1178	33,03
1179	-30,63
1180	-45,14
1181	40,52
1182	-18,93
1183	-45,14
1184	34,44
1185	-36,72
1186	4,48
1187	32,09
1188	-8,63
1189	-66,68
1190	41,46
1191	-12,84
1192	-74,17
1193	-15,65
1194	-60,12
1195	-41,4
1196	-3,48
1197	23,2
1198	72,82
1199	57,37
1200	10,56
1201	14,31
1202	-22,21
1203	20,39
1204	-37,19
1205	-51,7
1206	-44,67
1207	25,07
1208	-25,48
1209	-38,12
1210	-1,14
1211	-16,12
1212	23,2
1213	35,84
1214	52,22
1215	-17,99
1216	-55,91
1217	45,67
1218	-12,38
1219	30,69
1220	-8,63
1221	70,95
1222	-36,25
1223	86,4
1224	25,07
1225	-7,23
1226	23,2
1227	66,73
1228	-71,83
1229	-27,82
1230	-10,5
1231	41,92
1232	-27,36
1233	-25,48
1234	29,29
1235	-31,57
1236	-2,08
1237	11,97
1238	1,67
1239	-10,5
1240	-29,23
1241	66,73
1242	-36,72
1243	-33,91
1244	22,73
1245	18,99
1246	43,8
1247	48,48
1248	-6,29
1249	-1,61
1250	-0,2
1251	23,67
1252	94,82
1253	12,43
1254	5,88
1255	-10,5
1256	-52,16
1257	-24,08
1258	3,54
1259	-30,63
1260	48,95
1261	0,73
1262	-96,63
1263	64,86
1264	-29,23
1265	-30,16
1266	-43,27
1267	-3,48
1268	47,54
1269	-42,8
1270	30,69
1271	-30,63
1272	76,56
1273	-64,8
1274	10,09
1275	-12,84
1276	-8,63
1277	-39,99
1278	-8,63
1279	23,2
1280	5,41
1281	5,41
1282	22,26
1283	-45,14
1284	34,9
1285	80,31
1286	11,97
1287	-18,93
1288	-78,38
1289	-31,57
1290	-39,53
1291	12,43
1292	-66,21
1293	-12,84
1294	29,29
1295	-87,27
1296	44,27
1297	-98,98
1298	-37,65
1299	18,05
1300	51,76
1301	6,35
1302	19,92
1303	-5,82
1304	-19,87
1305	26,95
1306	19,92
1307	19,46
1308	-13,31
1309	-3,48
1310	-15,65
1311	-32,5
1312	26,95
1313	0,73
1314	-18,93
1315	-58,72
1316	15,71
1317	11,5
1318	-8,63
1319	-30,16
1320	13,84
1321	40,99
1322	40,05
1323	-30,16
1324	-6,76
1325	-21,27
1326	-90,08
1327	-53,1
1328	45,2
1329	-44,21
1330	-53,57
1331	4,48
1332	-61,53
1333	-11,91
1334	-9,1
1335	-9,1
1336	-9,1
1337	-6,29
1338	-73,23
1339	-52,16
1340	17,12
1341	0,73
1342	-25,01
1343	26,01
1344	-68,55
1345	26,01
1346	-120,04
1347	-92,42
1348	-74,17
1349	-56,85
1350	-14,25
1351	-46,08
1352	-29,7
1353	-45,61
1354	-17,52
1355	-25,95
1356	-1,61
1357	-44,21
1358	-127,53
1359	-47,02
1360	-72,76
1361	-50,76
1362	6,35
1363	-27,36
1364	-39,53
1365	-53,1
1366	-30,16
1367	10,56
1368	-34,84
1369	-25,95
1370	-98,51
1371	-74,63
1372	-14,72
1373	35,37
1374	-92,89
1375	-64,34
1376	-79,31
1377	-46,08
1378	11,03
1379	-64,34
1380	-50,29
1381	-50,29
1382	-47,48
1383	-58,25
1384	-69,48
1385	19,92
1386	-77,91
1387	-54,04
1388	-40,46
1389	-18,46
1390	-30,63
1391	15,24
1392	-43,74
1393	-66,21
1394	-11,44
1395	-36,72
1396	-45,61
1397	-110,68
1398	-62,46
1399	-61,99
1400	31,16
1401	-35,78
1402	23,67
1403	-74,63
1404	-4,89
1405	34,9
1406	-22,21
1407	-22,67
1408	5,41
1409	25,54
1410	-39,99
1411	-35,31
1412	-50,76
1413	-9,1
1414	-33,91
1415	-54,51
1416	-10,04
1417	-39,06
1418	-16,12
1419	-92,89
1420	-54,04
1421	3,07
1422	-4,42
1423	-2,55
1424	6,82
1425	7,28
1426	-35,78
1427	4,48
1428	27,88
1429	-42,33
1430	47,07
1431	56,9
1432	18,99
1433	-129,87
1434	-94,29
1435	60,65
1436	24,6
1437	-54,51
1438	-19,87
1439	9,63
1440	-17,06
1441	37,71
1442	37,24
1443	-38,12
1444	-38,12
1445	2,6
1446	-13,31
1447	16,18
1448	-24,08
1449	-0,67
1450	-47,02
1451	-1,14
1452	-81,19
1453	-120,04
1454	-43,74
1455	-21,74
1456	40,52
1457	-51,23
1458	8,22
1459	29,29
1460	-46,08
1461	33,5
1462	-17,99
1463	-24,08
1464	-66,21
1465	-32,5
1466	-49,82
1467	0,73
1468	-100,85
1469	0,73
1470	-39,06
1471	69,54
1472	-1,61
1473	-18,46
1474	-39,53
1475	-21,74
1476	21,8
1477	-25,95
1478	-7,23
1479	4,48
1480	-38,59
1481	-44,21
1482	54,56
1483	-15,18
1484	-40,93
1485	-36,25
1486	26,48
1487	-48,42
1488	-9,1
1489	12,43
1490	-66,68
1491	-4,89
1492	41,46
1493	6,35
1494	-42,8
1495	19,46
1496	-44,67
1497	11,5
1498	79,37
1499	47,07
1500	-68,08
1501	37,71
1502	-54,97
1503	18,99
1504	44,27
1505	11,03
1506	4,01
1507	-23,61
1508	-54,04
1509	-35,78
1510	-65,74
1511	-18,93
1512	59,24
1513	36,78
1514	-47,95
1515	-51,7
1516	-5,35
1517	-22,21
1518	-46,55
1519	34,44
1520	-16,12
1521	-32,97
1522	-77,91
1523	-69,02
1524	64,39
1525	-47,02
1526	-32,04
1527	-35,31
1528	6,35
1529	-24,08
1530	56,44
1531	-38,12
1532	-38,59
1533	8,69
1534	-17,52
1535	2,14
1536	5,41
1537	-3,48
1538	55,97
1539	-0,67
1540	-58,72
1541	-63,4
1542	-76,51
1543	13,37
1544	-1,14
1545	50,82
1546	-16,12
1547	-32,04
1548	18,05
1549	-21,27
1550	-63,87
1551	-28,76
1552	21,33
1553	28,35
1554	-31,57
1555	19,46
1556	-38,59
1557	32,09
1558	-36,25
1559	-0,2
1560	49,88
1561	-23,14
1562	-78,85
1563	33,03
1564	68,14
1565	-6,76
1566	-25,01
1567	100,91
1568	4,94
1569	-37,65
1570	-5,82
1571	-29,7
1572	-88,21
1573	-45,14
1574	-35,31
1575	-24,08
1576	69,08
1577	20,39
1578	17,12
1579	24,14
1580	-52,16
1581	77,5
1582	1,67
1583	-134,08
1584	-17,06
1585	-31,1
1586	28,35
1587	-18,93
1588	-41,4
1589	-97,57
1590	46,14
1591	3,07
1592	25,07
1593	-33,91
1594	-44,21
1595	41,92
1596	11,03
1597	24,6
1598	-11,44
1599	-11,91
1600	24,14
1601	6,35
1602	-22,21
1603	88,27
1604	2,6
1605	15,24
1606	-22,67
1607	-66,68
1608	12,43
1609	7,28
1610	-50,76
1611	36,78
1612	-12,84
1613	-12,84
1614	-3,95
1615	47,07
1616	24,6
1617	-3,01
1618	-28,29
1619	66,73
1620	-24,55
1621	-25,01
1622	7,75
1623	5,41
1624	-2,08
1625	2,14
1626	21,33
1627	-43,27
1628	54,56
1629	-6,76
1630	17,58
1631	-19,87
1632	39,12
1633	25,07
1634	28,35
1635	-1,61
1636	-19,4
1637	-1,14
1638	10,09
1639	104,65
1640	-31,57
1641	-17,06
1642	11,97
1643	-20,33
1644	-43,27
1645	-57,31
1646	4,94
1647	7,28
1648	-44,21
1649	-80,72
1650	73,76
1651	-21,74
1652	30,69
1653	-63,4
1654	1,67
1655	0,73
1656	-12,84
1657	-54,04
1658	-19,4
1659	5,88
1660	26,48
1661	-77,44
1662	-46,55
1663	-3,95
1664	-49,82
1665	-16,12
1666	23,2
1667	-51,7
1668	-54,51
1669	17,58
1670	23,2
1671	-16,59
1672	59,71
1673	-88,21
1674	-7,69
1675	0,26
1676	20,39
1677	25,07
1678	-37,65
1679	-59,65
1680	63,93
1681	21,33
1682	35,37
1683	-6,76
1684	1,67
1685	68,61
1686	26,48
1687	14,31
1688	-57,31
1689	1,67
1690	-19,87
1691	-7,69
1692	-29,23
1693	-39,06
1694	-7,69
1695	8,22
1696	21,8
1697	-9,1
1698	19,46
1699	11,97
1700	-10,97
1701	-17,52
1702	-33,44
1703	1,67
1704	-39,06
1705	63,93
1706	-46,08
1707	16,18
1708	-8,16
1709	-40,93
1710	-24,08
1711	-13,78
1712	-13,78
1713	-55,44
1714	-26,42
1715	44,27
1716	-27,36
1717	-32,97
1718	20,39
1719	-5,35
1720	-11,44
1721	28,35
1722	-36,72
1723	-9,1
1724	-25,95
1725	-7,23
1726	13,84
1727	-17,06
1728	18,52
1729	-28,29
1730	59,71
1731	-35,31
1732	-3,95
1733	-53,57
1734	-5,82
1735	22,73
1736	4,94
1737	-8,63
1738	38,18
1739	11,03
1740	67,67
1741	106,99
1742	-3,01
1743	31,16
1744	51,76
1745	17,12
1746	-28,29
1747	10,56
1748	-36,25
1749	-25,01
1750	-10,97
1751	18,52
1752	9,16
1753	48,01
1754	9,16
1755	17,58
1756	75,16
1757	54,56
1758	9,63
1759	9,16
1760	-88,68
1761	-23,14
1762	-21,27
1763	49,88
1764	-45,14
1765	7,28
1766	-8,63
1767	-42,8
1768	14,31
1769	26,95
1770	-32,04
1771	62,99
1772	68,14
1773	26,48
1774	-21,27
1775	-29,23
1776	-25,48
1777	18,52
1778	12,9
1779	47,07
1780	-33,44
1781	20,86
1782	-44,21
1783	-50,76
1784	10,56
1785	24,14
1786	48,95
1787	-45,61
1788	-63,4
1789	-33,44
1790	-58,72
1791	-45,14
1792	26,48
1793	-26,42
1794	44,73
1795	-16,59
1796	-13,31
1797	-1,14
1798	-28,76
1799	-58,72
1800	-38,59
1801	-4,42
1802	73,29
1803	-2,55
1804	-28,76
1805	-5,35
1806	-60,12
1807	-52,63
1808	19,92
1809	-41,4
1810	18,99
1811	-26,42
1812	-3,95
1813	-4,42
1814	24,14
1815	-6,29
1816	5,41
1817	-30,16
1818	-11,44
1819	-0,2
1820	-19,87
1821	61,12
1822	-69,48
1823	-3,95
1824	50,35
1825	74,22
1826	-42,33
1827	51,29
1828	-11,91
1829	-27,82
1830	-41,4
1831	3,54
1832	48,95
1833	12,43
1834	-9,57
1835	55,97
1836	-54,51
1837	17,12
1838	-47,48
1839	53,16
1840	-28,76
1841	105,59
1842	-47,95
1843	-13,78
1844	-46,08
1845	-12,38
1846	58,31
1847	-37,19
1848	31,63
1849	18,52
1850	9,16
1851	30,22
1852	-15,18
1853	-15,65
1854	-25,48
1855	23,67
1856	-4,89
1857	62,05
1858	4,94
1859	36,78
1860	-29,7
1861	-9,57
1862	24,14
1863	14,31
1864	3,54
1865	40,99
1866	56,9
1867	-16,12
1868	-76,04
1869	-94,29
1870	26,01
1871	24,6
1872	3,07
1873	-14,72
1874	-40,46
1875	-41,87
1876	9,63
1877	-7,23
1878	-34,38
1879	-41,87
1880	28,82
1881	60,18
1882	97,16
1883	-18,46
1884	7,75
1885	40,99
1886	-5,82
1887	-45,14
1888	54,56
1889	22,26
1890	-18,93
1891	41,46
1892	9,16
1893	47,07
1894	36,31
1895	28,35
1896	-37,19
1897	24,14
1898	5,41
1899	27,41
1900	-61,99
1901	-58,25
1902	-16,59
1903	-46,08
1904	7,75
1905	-5,35
1906	5,41
1907	-47,95
1908	-20,33
1909	-54,97
1910	-62,46
1911	19,46
1912	-3,01
1913	40,05
1914	1,67
1915	49,88
1916	-16,59
1917	-7,23
1918	77,5
1919	-7,69
1920	5,88
1921	-82,59
1922	-21,74
1923	-18,93
1924	-10,5
1925	-15,18
1926	-47,48
1927	-42,33
1928	-35,78
1929	-8,16
1930	1,67
1931	-24,08
1932	32,09
1933	-1,61
1934	33,03
1935	-32,5
1936	30,69
1937	-17,52
1938	47,07
1939	-45,61
1940	-53,1
1941	59,24
1942	54,1
1943	58,78
1944	-48,89
1945	60,18
1946	-12,38
1947	74,69
1948	32,09
1949	13,84
1950	0,73
1951	71,88
1952	63,46
1953	6,82
1954	-3,95
1955	-29,7
1956	-47,95
1957	-8,63
1958	-17,52
1959	-14,25
1960	22,26
1961	3,07
1962	66,27
1963	-3,95
1964	79,84
1965	21,8
1966	-56,85
1967	-42,8
1968	58,78
1969	0,73
1970	-22,67
1971	-6,76
1972	-1,14
1973	58,31
1974	-28,29
1975	-29,7
1976	-22,67
1977	40,52
1978	7,75
1979	-32,04
1980	-24,55
1981	-47,02
1982	-9,57
1983	-5,82
1984	39,12
1985	26,01
1986	-77,91
1987	55,5
1988	32,09
1989	-86,34
1990	-32,5
1991	-92,42
1992	-6,29
1993	47,54
1994	-5,82
1995	36,78
1996	-15,18
1997	26,48
1998	-1,61
1999	-41,87
2000	-30,16
2001	-90,08
2002	-20,33
2003	1,2
2004	-12,38
2005	4,48
2006	-19,87
2007	10,09
2008	-44,21
2009	34,9
2010	-36,25
2011	60,65
2012	-45,14
2013	48,48
2014	-27,82
2015	43,33
2016	-51,23
2017	8,22
2018	44,73
2019	70,48
2020	2,6
2021	6,82
2022	18,99
2023	-22,21
2024	17,58
2025	-16,59
2026	38,18
2027	-13,78
2028	26,48
2029	-9,57
2030	-25,48
2031	-13,78
2032	26,48
2033	1,67
2034	4,01
2035	-22,21
2036	-10,97
2037	2,14
2038	-24,08
2039	29,29
2040	-81,19
2041	-3,01
2042	5,41
2043	2,14
2044	15,71
2045	20,86
2046	20,86
2047	20,86
