Data from Subt2_16-04-13-162.txt Node
Date: Wed Apr 21 16:04:13 CEST 2021
User: au643642
Spectrometer: FLMS05507
Trigger mode: 0
Integration Time (sec): 2,000000E-3
Scans to average: 10
Electric dark correction enabled: true
Nonlinearity correction enabled: false
Boxcar width: 0
XAxis mode: Pixels
Number of Pixels in Spectrum: 2048
>>>>>Begin Spectral Data<<<<<
0	47,12
1	47,12
2	47,12
3	87,14
4	52,5
5	16,22
6	30,97
7	-8,59
8	-77,63
9	39,16
10	-4,61
11	-65,93
12	9,9
13	-13,27
14	113,82
15	2,65
16	-5,54
17	-7,88
18	-33,4
19	-34,57
20	38,69
21	18,8
22	-74,36
23	-54,23
24	-4,14
25	-19,82
26	-8,59
27	98,61
28	7,56
29	31,2
30	-55,4
31	-61,01
32	39,63
33	-32,23
34	10,61
35	-29,18
36	1,95
37	19,03
38	-21,23
39	62,8
40	-4,14
41	-30,82
42	16,22
43	7,33
44	59,52
45	-19,35
46	9,44
47	31,2
48	-84,89
49	5,46
50	49,93
51	-49,08
52	-13,03
53	-23,57
54	33,78
55	-28,25
56	-20,52
57	3,82
58	-16,78
59	65,14
60	50,63
61	-39,25
62	-3,44
63	-7,18
64	-15,14
65	4,05
66	1,48
67	-90,74
68	-68,97
69	63,03
70	55,78
71	-0,63
72	46,88
73	-2,5
74	-22,63
75	-51,89
76	40,33
77	19,03
78	26,05
79	-7,88
80	26,52
81	-11,16
82	52,03
83	31,9
84	56,01
85	17,63
86	62,1
87	17,39
88	-21,23
89	26,05
90	2,88
91	-8,59
92	112,89
93	23,01
94	-54,93
95	56,95
96	-40,65
97	43,61
98	47,12
99	-6,01
100	-31,06
101	-39,25
102	7,56
103	-3,44
104	-60,31
105	20,9
106	-17,95
107	-39,48
108	-51,65
109	51,33
110	-13,5
111	59,99
112	3,82
113	-1,33
114	-57,27
115	77,78
116	29,56
117	58,82
118	41,73
119	-1,1
120	18,33
121	28,63
122	-17,95
123	84,57
124	-24,74
125	69,35
126	59,05
127	27,46
128	6,63
129	13,88
130	25,35
131	20,67
132	-28,25
133	-15,14
134	-19,35
135	-81,85
136	-9,99
137	37,99
138	38,46
139	-5,54
140	36,12
141	-16,54
142	64,91
143	-31,29
144	52,03
145	-1,57
146	-19,59
147	-42,76
148	34,01
149	21,37
150	-17,71
151	33,07
152	-78,33
153	13,18
154	27,22
155	-20,29
156	-30,59
157	40,56
158	60,46
159	99,55
160	32,37
161	74,27
162	-50,48
163	39,16
164	-31,99
165	7,09
166	73,8
167	-41,59
168	3,35
169	41,03
170	4,29
171	-78,33
172	0,31
173	-65,93
174	-16,78
175	64,2
176	-25,91
177	-30,35
178	-43,23
179	46,65
180	-39,48
181	-50,95
182	53,2
183	-41,35
184	-7,18
185	10,61
186	34,71
187	-10,69
188	-48,14
189	12,95
190	51,56
191	2,41
192	8,5
193	-15,61
194	-19,12
195	-6,95
196	-52,59
197	-32,46
198	-39,95
199	39,39
200	32,61
201	15,99
202	71,93
203	-32,93
204	-45,33
205	63,74
206	-8,12
207	5,22
208	-47,91
209	-23,57
210	-4,37
211	-21,69
212	-41,12
213	-7,88
214	48,52
215	6,86
216	2,88
217	-60,31
218	46,88
219	-6,71
220	33,07
221	-15,61
222	69,82
223	34,48
224	17,16
225	-12,57
226	-39,72
227	-13,27
228	8,03
229	51,56
230	-8,12
231	16,46
232	51,8
233	40,33
234	58,35
235	35,88
236	8,03
237	28,86
238	2,41
239	48,99
240	-70,38
241	16,69
242	-5,78
243	26,52
244	20,9
245	11,31
246	47,35
247	5,22
248	38,69
249	46,42
250	13,65
251	14,12
252	19,73
253	-17,71
254	23,71
255	-6,25
256	-56,33
257	23,48
258	41,27
259	-0,86
260	72,4
261	-80,21
262	29,56
263	-5,78
264	-20,06
265	85,74
266	0,54
267	-1,1
268	65,37
269	-23,57
270	-40,42
271	-2,27
272	-66,4
273	20,9
274	38,46
275	-2,27
276	-5,31
277	-9,99
278	48,52
279	-45,57
280	22,78
281	13,41
282	18,56
283	-7,18
284	-81,38
285	26,76
286	-41,82
287	9,44
288	13,41
289	-45,1
290	3,12
291	19,97
292	5,22
293	33,07
294	-31,99
295	24,88
296	7,09
297	20,2
298	-18,65
299	85,97
300	-52,12
301	-55,16
302	36,59
303	89,48
304	-39,25
305	-23,8
306	-25,91
307	-1,57
308	15,52
309	-21,93
310	19,03
311	-30,35
312	-67,1
313	46,42
314	13,88
315	62,33
316	14,58
317	-0,86
318	-28,72
319	-11,4
320	19,27
321	-5,78
322	-9,99
323	-26,61
324	27,46
325	35,42
326	3,82
327	-8,35
328	89,25
329	9,67
330	20,67
331	-17,01
332	83,4
333	-28,95
334	-38,08
335	-21,23
336	56,01
337	-27,31
338	-58,91
339	-31,99
340	3,12
341	-0,63
342	-1,33
343	-14,91
344	-13,03
345	44,54
346	62,33
347	7,56
348	-18,18
349	-22,16
350	-14,91
351	5,92
352	11,78
353	56,25
354	-28,72
355	-93,55
356	37,05
357	-67,57
358	6,39
359	15,52
360	-5,31
361	19,27
362	8,03
363	-17,95
364	90,18
365	17,63
366	-55,4
367	-11,16
368	-55,63
369	10,37
370	-28,48
371	-4,84
372	-0,86
373	8,73
374	-6,71
375	-37,84
376	16,46
377	102,59
378	37,52
379	50,63
380	18,1
381	-22,86
382	56,25
383	39,16
384	-14,91
385	25,82
386	-1,57
387	84,1
388	-10,69
389	8,73
390	8,73
391	-16,54
392	-21,93
393	-16,08
394	-13,03
395	15,29
396	90,42
397	32,84
398	18,56
399	-0,16
400	51,1
401	58,59
402	22,31
403	49,22
404	11,31
405	81,99
406	-13,97
407	34,71
408	-35,5
409	12,01
410	-20,52
411	67,01
412	2,88
413	30,27
414	94,4
415	47,35
416	26,05
417	30,73
418	-27,31
419	2,41
420	7,09
421	6,86
422	55,31
423	24,65
424	39,39
425	-0,39
426	43,61
427	54,14
428	54,84
429	-47,21
430	-35,5
431	46,18
432	-34,1
433	-37,84
434	6,86
435	26,99
436	30,73
437	44,08
438	-0,86
439	-23,33
440	-18,42
441	-31,52
442	-39,01
443	77,78
444	1,01
445	-40,42
446	23,24
447	-24,74
448	-76,93
449	23,71
450	63,27
451	51,56
452	-2,5
453	33,54
454	12,71
455	-1,33
456	21,61
457	13,88
458	7,33
459	-11,86
460	-53,99
461	-74,59
462	67,25
463	61,63
464	78,95
465	36,35
466	35,42
467	80,12
468	60,69
469	-50,01
470	-26,14
471	-42,06
472	-18,18
473	-6,25
474	-36,44
475	-50,72
476	-53,76
477	-59,14
478	-38,08
479	39,16
480	8,27
481	-1,1
482	41,73
483	18,8
484	45,95
485	60,46
486	-16,78
487	-7,88
488	26,76
489	-26,37
490	29,56
491	6,39
492	10,37
493	7,8
494	-35,5
495	-3,44
496	46,88
497	19,5
498	-20,76
499	30,27
500	6,63
501	-24,03
502	37,99
503	-57,97
504	22,78
505	-55,4
506	-9,52
507	7,56
508	-3,67
509	-30,82
510	14,58
511	-30,12
512	45,01
513	39,16
514	-8,59
515	-12,33
516	11,07
517	-9,05
518	-48,84
519	-6,71
520	-42,06
521	-42,76
522	6,86
523	-69,21
524	-37,14
525	-59,84
526	-32,69
527	-1,57
528	-13,27
529	-64,76
530	-84,89
531	-35,27
532	-78,57
533	21,84
534	-22,86
535	-75,99
536	-57,5
537	-91,91
538	-76,7
539	-121,17
540	-65,46
541	-46,27
542	-40,89
543	-48,14
544	-49,08
545	-198,4
546	-316,37
547	-355,92
548	-368,8
549	-264,41
550	-138,72
551	-124,21
552	-79,51
553	-64,06
554	-103,61
555	-145,98
556	-32,46
557	-64,76
558	-96,12
559	-145,27
560	-66,16
561	-73,42
562	-142,93
563	-94,95
564	-149,96
565	-178,28
566	-116,02
567	-141,53
568	-178,28
569	-96,59
570	-83,25
571	-117,42
572	-195,13
573	-199,11
574	-93,08
575	-186,94
576	-109
577	-175,94
578	-153,23
579	-223,21
580	-179,45
581	-185,3
582	-211,51
583	-296,94
584	-224,15
585	-215,49
586	-222,98
587	-198,17
588	-191,85
589	-178,28
590	-166,57
591	-227,66
592	-249,66
593	-219,94
594	-234,68
595	-191,15
596	-260,19
597	-244,98
598	-258,56
599	-240,07
600	-216,19
601	-256,45
602	-259,02
603	-183,19
604	-209,17
605	-216,66
606	-190,91
607	-155,1
608	-253,17
609	-263,24
610	-214,09
611	-210,34
612	-225,79
613	-252,47
614	-287,58
615	-233,51
616	-260,19
617	-277,05
618	-387,99
619	-255,05
620	-266,75
621	-275,64
622	-249,66
623	-248,73
624	-274,47
625	-217,36
626	-277,51
627	-222,51
628	-252,94
629	-238,43
630	-286,41
631	-218,3
632	-231,64
633	-239,36
634	-240,07
635	-260,66
636	-302,32
637	-215,49
638	-283,37
639	-293,66
640	-316,84
641	-327,6
642	-263
643	-189,51
644	-279,15
645	-313,79
646	-273,07
647	-240,53
648	-286,17
649	-324,79
650	-294,83
651	-331,58
652	-417,71
653	-353,35
654	-350,31
655	-304,43
656	-243,11
657	-342,11
658	-357,33
659	-302,09
660	-292,73
661	-390,56
662	-337,2
663	-400,39
664	-456,1
665	-435,73
666	-377,92
667	-428,95
668	-401,33
669	-423,8
670	-309,35
671	-383,54
672	-373,48
673	-358,5
674	-362,94
675	-395,48
676	-325,26
677	-309,35
678	-217,36
679	-316,13
680	-263,47
681	-277,51
682	-160,72
683	-302,32
684	-266,75
685	-194,66
686	-202,62
687	-208
688	-203,55
689	-242,41
690	-183,66
691	-217,13
692	-178,51
693	-138,95
694	-168,21
695	-51,89
696	-162,36
697	-195,6
698	-145,98
699	-109,23
700	-101,74
701	-119,53
702	-157,21
703	-111,57
704	-150,19
705	-135,21
706	-80,91
707	-141,53
708	-72,95
709	-105,49
710	-142,23
711	-84,65
712	-36,91
713	-134,74
714	-68,04
715	-21,69
716	-55,4
717	-87,7
718	-108,53
719	-20,29
720	-93,08
721	-46,97
722	-92,85
723	-86,29
724	-39,01
725	-61,72
726	-71,78
727	-39,72
728	-117,19
729	-25,91
730	-72,48
731	-98,93
732	-10,46
733	-18,18
734	-29,65
735	30,5
736	67,25
737	-25,44
738	-21,23
739	-22,4
740	-53,53
741	-65,46
742	-31,99
743	20,9
744	23,95
745	20,44
746	-90,74
747	38,69
748	-26,61
749	-0,16
750	6,39
751	-41,12
752	3,82
753	30,5
754	-29,42
755	86,2
756	-1,8
757	32,61
758	-58,21
759	-31,76
760	42,44
761	53,67
762	-32,23
763	35,42
764	-35,74
765	9,44
766	-0,39
767	-0,86
768	-26,84
769	74,74
770	-58,67
771	72,86
772	32,84
773	-67,33
774	53,67
775	33,07
776	31,44
777	5,69
778	-6,48
779	6,39
780	129,97
781	-2,74
782	46,88
783	24,88
784	39,86
785	1,48
786	49,69
787	8,03
788	60,69
789	39,63
790	19,03
791	-5,31
792	-51,18
793	-31,76
794	-18,42
795	-13,27
796	39,86
797	32,61
798	67,95
799	-36,67
800	-7,65
801	-40,42
802	-7,18
803	-66,87
804	19,5
805	-72,72
806	-27,55
807	11,31
808	31,44
809	8,03
810	24,18
811	-53,53
812	38,22
813	-0,39
814	45,48
815	61,16
816	14,12
817	45,48
818	38,93
819	-30,82
820	-13,27
821	23,24
822	-7,42
823	59,76
824	66,08
825	14,82
826	47,82
827	73,57
828	23,48
829	71,93
830	60,22
831	0,07
832	101,89
833	48,05
834	39,16
835	64,44
836	46,65
837	46,88
838	-13,03
839	77,31
840	65,37
841	91,82
842	21,84
843	13,41
844	21,14
845	23,01
846	78,01
847	81,29
848	-9,99
849	63,27
850	73,8
851	70,52
852	8,73
853	26,29
854	27,22
855	-15,84
856	19,03
857	-4,14
858	92,29
859	69,12
860	36,82
861	39,16
862	99,55
863	-1,8
864	42,44
865	9,9
866	-53,76
867	51,33
868	46,88
869	40,56
870	-15,14
871	15,75
872	71,69
873	86,67
874	-46,97
875	-26,37
876	-25,91
877	47,59
878	56,48
879	37,52
880	46,88
881	29,1
882	46,18
883	-4,37
884	12,24
885	37,29
886	-14,44
887	33,07
888	-39,72
889	7,09
890	21,61
891	-25,44
892	19,73
893	16,22
894	1,71
895	-62,42
896	3,35
897	47,59
898	35,42
899	28,16
900	12,71
901	62,1
902	4,52
903	-2,97
904	9,67
905	82,23
906	39,86
907	46,42
908	9,2
909	33,07
910	74,27
911	104,93
912	12,01
913	40,56
914	56,71
915	35,88
916	63,74
917	28,86
918	46,65
919	51,1
920	40,8
921	53,44
922	10,14
923	41,27
924	-2,5
925	118,27
926	19,27
927	48,76
928	58,35
929	-42,76
930	9,9
931	66,31
932	-33,4
933	67,71
934	102,12
935	63,74
936	67,95
937	25,35
938	40,56
939	20,9
940	17,39
941	23,01
942	60,69
943	46,18
944	-32,93
945	-39,72
946	42,9
947	33,31
948	8,5
949	81,29
950	-10,69
951	70,99
952	-64,53
953	-1,33
954	67,48
955	41,5
956	40,56
957	17,63
958	34,48
959	20,67
960	-28,72
961	-53,99
962	51,56
963	-5,78
964	34,71
965	75,67
966	28,86
967	71,46
968	64,67
969	41,97
970	45,95
971	79,65
972	-58,44
973	18,1
974	42,44
975	95,57
976	19,03
977	42,9
978	19,5
979	22,31
980	88,08
981	8,73
982	9,9
983	-7,42
984	22,54
985	-35,97
986	11,54
987	44,78
988	35,65
989	10,61
990	47,59
991	24,88
992	85,5
993	15,05
994	29,33
995	26,05
996	-44,16
997	45,48
998	-0,39
999	-1,8
1000	48,52
1001	-27,55
1002	63,97
1003	67,95
1004	61,63
1005	7,56
1006	-94,72
1007	46,88
1008	40,56
1009	-4,84
1010	8,97
1011	13,65
1012	70,76
1013	54,37
1014	60,46
1015	57,88
1016	2,18
1017	30,03
1018	0,78
1019	-12,33
1020	100,48
1021	-0,16
1022	-16,54
1023	37,99
1024	109,84
1025	35,88
1026	-8,59
1027	-2,03
1028	20,9
1029	36,82
1030	62,1
1031	-36,91
1032	17,86
1033	-1,1
1034	17,16
1035	12,24
1036	-34,1
1037	5,46
1038	-23,1
1039	-36,44
1040	73,1
1041	-2,27
1042	32,14
1043	17,39
1044	21,14
1045	15,75
1046	51,56
1047	75,44
1048	25,12
1049	34,71
1050	15,99
1051	-2,27
1052	15,99
1053	-6,71
1054	-17,95
1055	-59,84
1056	6,39
1057	64,2
1058	132,31
1059	59,52
1060	-7,18
1061	11,31
1062	41,97
1063	35,88
1064	88,31
1065	44,54
1066	-59,84
1067	-42,06
1068	3,82
1069	13,65
1070	66,08
1071	-17,25
1072	-2,74
1073	50,86
1074	-20,99
1075	26,05
1076	10,14
1077	14,58
1078	-10,23
1079	44,78
1080	4,05
1081	-24,03
1082	-63,36
1083	-23,57
1084	17,63
1085	39,39
1086	-8,59
1087	-31,52
1088	-36,67
1089	13,41
1090	32,84
1091	2,88
1092	18,8
1093	-21,93
1094	25,35
1095	17,16
1096	27,22
1097	61,16
1098	-34,1
1099	39,86
1100	-11,86
1101	-58,91
1102	1,71
1103	-5,31
1104	41,73
1105	55,78
1106	89,95
1107	113,59
1108	26,76
1109	14,12
1110	74,27
1111	48,76
1112	52,27
1113	-22,63
1114	0,78
1115	18,33
1116	8,03
1117	-65,23
1118	37,05
1119	-23,1
1120	55,54
1121	-6,01
1122	10,37
1123	23,01
1124	-21,69
1125	0,54
1126	0,07
1127	50,86
1128	-13,27
1129	-77,4
1130	35,65
1131	21,61
1132	17,86
1133	36,12
1134	-25,44
1135	-11,63
1136	20,44
1137	-41,82
1138	2,65
1139	-6,01
1140	47,82
1141	23,71
1142	66,54
1143	15,05
1144	-30,59
1145	16,22
1146	63,97
1147	60,46
1148	29,1
1149	-28,48
1150	21,84
1151	3,12
1152	-21,69
1153	-7,65
1154	30,73
1155	-42,52
1156	66,31
1157	74,03
1158	33,07
1159	-23,8
1160	-8,12
1161	47,59
1162	33,07
1163	-21,46
1164	107,74
1165	-22,4
1166	-10,23
1167	0,78
1168	7,33
1169	1,24
1170	-9,99
1171	-52,59
1172	15,29
1173	33,07
1174	23,24
1175	95,57
1176	-24,74
1177	-17,01
1178	67,95
1179	14,82
1180	13,88
1181	64,91
1182	-7,18
1183	-35,5
1184	29,8
1185	-11,4
1186	28,39
1187	38,22
1188	-10,23
1189	-40,42
1190	31,67
1191	5,46
1192	-43,93
1193	-36,44
1194	-53,76
1195	-19,59
1196	-2,27
1197	23,71
1198	59,76
1199	66,08
1200	53,44
1201	45,25
1202	-16,31
1203	4,52
1204	-50,95
1205	-54,93
1206	-3,2
1207	77,78
1208	3,58
1209	-2,27
1210	-12,8
1211	8,03
1212	25,35
1213	-3,91
1214	58,35
1215	26,05
1216	-46,04
1217	29,56
1218	3,35
1219	59,76
1220	-7,18
1221	42,2
1222	-38,55
1223	99,31
1224	18,33
1225	2,18
1226	44,31
1227	57,88
1228	-48,84
1229	31,9
1230	-21,46
1231	81,99
1232	4,05
1233	-2,03
1234	53,44
1235	16,92
1236	0,31
1237	56,48
1238	16,46
1239	3,58
1240	-0,63
1241	49,22
1242	-9,99
1243	-28,48
1244	39,86
1245	19,5
1246	20,67
1247	48,76
1248	28,39
1249	24,65
1250	15,52
1251	56,95
1252	91,12
1253	15,29
1254	19,97
1255	-16,54
1256	-38,78
1257	20,44
1258	35,18
1259	-17,95
1260	62,8
1261	26,76
1262	-68,27
1263	65,61
1264	-45,8
1265	-5,31
1266	-13,03
1267	-32,69
1268	48,76
1269	-36,44
1270	55,78
1271	-23,57
1272	66,08
1273	-19,12
1274	-8,35
1275	-0,16
1276	7,09
1277	-27,55
1278	-25,91
1279	-7,42
1280	20,44
1281	-8,59
1282	67,25
1283	-40,65
1284	8,27
1285	57,65
1286	38,93
1287	-24,97
1288	-26,61
1289	0,54
1290	-59,14
1291	39,86
1292	-13,5
1293	-25,91
1294	16,46
1295	-64,06
1296	45,71
1297	-66,16
1298	-16,31
1299	38,46
1300	50,63
1301	11,78
1302	-2,5
1303	11,78
1304	17,63
1305	28,39
1306	9,9
1307	26,52
1308	4,75
1309	5,22
1310	3,82
1311	-48,61
1312	50,63
1313	8,97
1314	-1,33
1315	-64,53
1316	35,18
1317	26,29
1318	27,69
1319	-17,01
1320	23,95
1321	35,42
1322	66,78
1323	-41,59
1324	-31,99
1325	-22,86
1326	-39,48
1327	-20,06
1328	61,4
1329	-27,08
1330	-10,46
1331	-12,57
1332	-17,01
1333	-2,74
1334	-30,35
1335	13,65
1336	20,67
1337	7,56
1338	-54,23
1339	-57,97
1340	15,05
1341	-26,84
1342	-37,84
1343	-9,05
1344	-56,57
1345	23,48
1346	-109,93
1347	-69,44
1348	-68,04
1349	-38,08
1350	-20,99
1351	-24,5
1352	-32,46
1353	-33,63
1354	8,27
1355	-26,37
1356	-12,1
1357	-28,25
1358	-101,51
1359	-28,01
1360	-59,38
1361	-30,82
1362	20,2
1363	12,48
1364	-2,27
1365	-38,55
1366	-38,55
1367	18,33
1368	-3,44
1369	-6,25
1370	-85,36
1371	-62,89
1372	-24,03
1373	37,52
1374	-61,72
1375	-44,87
1376	-41,59
1377	-71,08
1378	0,07
1379	-48,61
1380	-24,97
1381	-39,25
1382	-13,74
1383	-44,4
1384	-52,35
1385	-18,89
1386	-65,46
1387	-7,18
1388	-47,21
1389	-19,59
1390	-16,31
1391	35,18
1392	-40,42
1393	-42,99
1394	-27,55
1395	-25,91
1396	-20,29
1397	-78,33
1398	-45,33
1399	-31,76
1400	31,44
1401	0,54
1402	-18,89
1403	-55,16
1404	3,12
1405	48,52
1406	7,56
1407	-33,63
1408	-9,76
1409	22,31
1410	4,05
1411	-50,48
1412	-50,72
1413	23,95
1414	-32,93
1415	-34,57
1416	-36,44
1417	-9,29
1418	0,78
1419	-94,72
1420	-43,69
1421	4,99
1422	16,69
1423	16,46
1424	4,52
1425	27,22
1426	-17,01
1427	28,16
1428	52,5
1429	-30,59
1430	45,25
1431	36,35
1432	52,27
1433	-113,21
1434	-90,74
1435	54,14
1436	41,97
1437	-9,52
1438	-31,76
1439	20,44
1440	-23,57
1441	38,22
1442	81,76
1443	-22,86
1444	-28,95
1445	9,2
1446	9,44
1447	20,9
1448	-18,89
1449	-17,01
1450	-13,97
1451	-2,27
1452	-63,82
1453	-83,48
1454	-13,03
1455	-31,06
1456	33,07
1457	-6,01
1458	-3,91
1459	74,27
1460	-31,52
1461	35,18
1462	-42,99
1463	8,27
1464	-28,01
1465	-14,67
1466	-2,03
1467	7,56
1468	-70,61
1469	-4,84
1470	-25,2
1471	63,03
1472	-5,78
1473	-40,42
1474	-32,23
1475	-30,59
1476	5,69
1477	5,22
1478	0,54
1479	-10,23
1480	-51,89
1481	-23,33
1482	78,48
1483	-8,12
1484	-66,16
1485	-60,31
1486	16,46
1487	-63,36
1488	-5,08
1489	67,01
1490	-56,33
1491	12,24
1492	35,65
1493	31,2
1494	-35,03
1495	4,05
1496	4,52
1497	32,37
1498	91,59
1499	111,48
1500	-37,14
1501	49,69
1502	-43,93
1503	-16,31
1504	70,99
1505	1,24
1506	5,46
1507	-25,91
1508	-28,25
1509	-24,74
1510	-34,57
1511	-8,82
1512	107,27
1513	18,8
1514	-24,27
1515	-34,1
1516	26,29
1517	-50,72
1518	-17,25
1519	51,1
1520	-10,69
1521	5,92
1522	-99,4
1523	-36,67
1524	47,82
1525	-19,35
1526	-38,55
1527	2,65
1528	-1,1
1529	-18,65
1530	84,8
1531	-26,84
1532	-47,44
1533	7,33
1534	-24,27
1535	12,24
1536	9,9
1537	10,84
1538	67,48
1539	4,05
1540	-79,04
1541	-18,18
1542	-60,08
1543	40,56
1544	21,37
1545	52,27
1546	28,39
1547	-41,59
1548	-10,23
1549	-4,84
1550	-51,89
1551	2,65
1552	-13,74
1553	49,22
1554	-11,4
1555	0,78
1556	-31,52
1557	34,01
1558	8,73
1559	8,97
1560	25,82
1561	-31,06
1562	-39,25
1563	49,22
1564	76,84
1565	-17,95
1566	-12,33
1567	96,04
1568	28,16
1569	-29,65
1570	8,27
1571	-3,2
1572	-47,21
1573	-61,01
1574	-16,78
1575	0,07
1576	52,5
1577	21,14
1578	43,84
1579	31,9
1580	-50,48
1581	58,82
1582	21,37
1583	-112,74
1584	5,69
1585	-47,21
1586	29,33
1587	-15,14
1588	-27,31
1589	-77,63
1590	26,05
1591	2,88
1592	6,39
1593	-13,03
1594	-51,65
1595	36,59
1596	42,2
1597	34,71
1598	-2,5
1599	-0,39
1600	19,03
1601	13,18
1602	-51,42
1603	65,61
1604	26,99
1605	-9,29
1606	21,84
1607	-53,06
1608	41,97
1609	-10,46
1610	-39,48
1611	44,78
1612	-1,8
1613	40,56
1614	4,52
1615	34,95
1616	12,01
1617	11,07
1618	-15,37
1619	69,12
1620	-2,97
1621	-6,01
1622	28,39
1623	10,14
1624	19,27
1625	23,24
1626	31,67
1627	-3,2
1628	41,03
1629	3,82
1630	44,31
1631	-19,59
1632	44,08
1633	11,78
1634	53,67
1635	-6,01
1636	22,07
1637	17,63
1638	46,42
1639	114,76
1640	-14,2
1641	-13,03
1642	21,14
1643	2,88
1644	-39,72
1645	-55,16
1646	13,65
1647	19,27
1648	-22,86
1649	-62,19
1650	110,08
1651	-17,48
1652	43,37
1653	-26,84
1654	-10,23
1655	11,54
1656	-29,65
1657	-25,67
1658	-24,74
1659	-6,48
1660	23,48
1661	-62,65
1662	-51,89
1663	18,33
1664	-47,67
1665	13,41
1666	33,78
1667	5,22
1668	-0,86
1669	27,22
1670	35,18
1671	-10,69
1672	38,93
1673	-80,68
1674	1,71
1675	30,27
1676	35,88
1677	26,76
1678	-17,25
1679	-19,12
1680	96,27
1681	46,65
1682	62,33
1683	4,29
1684	45,48
1685	73,1
1686	47,82
1687	12,48
1688	-6,01
1689	22,07
1690	-46,5
1691	-16,31
1692	19,73
1693	-37,38
1694	-22,4
1695	11,07
1696	2,65
1697	4,52
1698	40,33
1699	47,59
1700	-19,35
1701	-6,71
1702	-1,1
1703	-15,61
1704	1,01
1705	80,82
1706	-15,14
1707	37,05
1708	12,24
1709	-40,89
1710	-17,25
1711	9,9
1712	-18,18
1713	-30,82
1714	-16,78
1715	15,75
1716	-41,59
1717	-45,57
1718	40,56
1719	4,99
1720	-28,25
1721	27,69
1722	-10,69
1723	-26,37
1724	-22,86
1725	-1,8
1726	12,01
1727	-11,16
1728	19,27
1729	-44,87
1730	71,46
1731	-20,52
1732	-47,21
1733	-34,1
1734	13,41
1735	48,29
1736	38,93
1737	27,93
1738	22,54
1739	6,39
1740	52,5
1741	96,27
1742	4,29
1743	8,73
1744	29,33
1745	-7,88
1746	-42,06
1747	15,99
1748	-28,48
1749	-23,8
1750	-4,14
1751	-21,23
1752	33,07
1753	45,48
1754	5,22
1755	30,73
1756	80,35
1757	30,5
1758	50,63
1759	44,54
1760	-72,02
1761	-23,57
1762	-21,69
1763	50,86
1764	-56,33
1765	45,25
1766	17,86
1767	-40,18
1768	19,97
1769	11,54
1770	-37,84
1771	49,69
1772	80,12
1773	49,46
1774	0,31
1775	-6,01
1776	-27,31
1777	52,97
1778	34,48
1779	42,2
1780	-6,71
1781	30,27
1782	-40,18
1783	-40,42
1784	28,39
1785	52,74
1786	37,05
1787	-13,5
1788	-74,12
1789	-31,99
1790	-18,18
1791	-21,23
1792	14,58
1793	-11,86
1794	38,69
1795	4,99
1796	-10,93
1797	-4,61
1798	-16,78
1799	-57,27
1800	-22,63
1801	-25,44
1802	73,8
1803	6,63
1804	-18,65
1805	-10,69
1806	-10,69
1807	-33,86
1808	1,71
1809	2,65
1810	41,73
1811	-14,67
1812	34,24
1813	20,67
1814	35,42
1815	-15,61
1816	0,54
1817	-32,46
1818	-8,35
1819	4,99
1820	-24,5
1821	43,14
1822	-46,97
1823	-4,37
1824	53,91
1825	65,37
1826	-40,42
1827	78,48
1828	19,73
1829	-9,05
1830	-13,74
1831	-8,12
1832	69,59
1833	32,84
1834	-10,93
1835	57,18
1836	-5,08
1837	33,54
1838	-64,53
1839	84,8
1840	10,14
1841	63,97
1842	-41,59
1843	5,69
1844	-3,67
1845	-16,31
1846	20,2
1847	-13,03
1848	-12,57
1849	23,24
1850	-6,71
1851	29,1
1852	-15,84
1853	33,54
1854	10,84
1855	17,16
1856	10,84
1857	57,42
1858	37,05
1859	81,52
1860	-15,84
1861	13,18
1862	34,24
1863	21,37
1864	4,75
1865	29,33
1866	70,52
1867	-3,2
1868	-11,16
1869	-30,35
1870	9,9
1871	55,54
1872	22,78
1873	20,2
1874	-12,8
1875	-29,89
1876	-6,01
1877	-11,86
1878	-46,5
1879	-35,74
1880	72,4
1881	51,1
1882	78,95
1883	-2,74
1884	19,27
1885	77,08
1886	21,61
1887	-22,63
1888	57,18
1889	3,35
1890	-30,12
1891	51,33
1892	1,01
1893	62,1
1894	65,84
1895	54,84
1896	-0,86
1897	46,18
1898	-10,69
1899	33,78
1900	-64,76
1901	-33,86
1902	5,69
1903	-41,35
1904	12,71
1905	12,48
1906	18,8
1907	-24,27
1908	15,52
1909	-17,48
1910	-50,25
1911	24,41
1912	-0,39
1913	49,46
1914	-12,1
1915	34,24
1916	-36,44
1917	20,2
1918	85,03
1919	-2,74
1920	32,84
1921	-96,36
1922	-7,88
1923	-11,86
1924	1,48
1925	-22,86
1926	-42,29
1927	-32,46
1928	15,75
1929	-20,99
1930	-0,16
1931	-30,59
1932	27,93
1933	-11,63
1934	31,2
1935	-30,82
1936	40,33
1937	-41,12
1938	55,08
1939	-16,31
1940	-65,23
1941	75,91
1942	46,88
1943	54,14
1944	-45,8
1945	36,82
1946	-26,61
1947	58,59
1948	52,97
1949	27,93
1950	-3,91
1951	97,67
1952	42,67
1953	20,2
1954	-14,2
1955	-24,97
1956	-48,61
1957	-24,97
1958	-4,14
1959	3,12
1960	36,82
1961	19,73
1962	47,59
1963	24,65
1964	73,57
1965	52,5
1966	-12,1
1967	-54,46
1968	77,08
1969	-2,74
1970	15,75
1971	-11,4
1972	-2,97
1973	48,99
1974	10,61
1975	7,33
1976	4,29
1977	63,5
1978	22,07
1979	-35,97
1980	-10,46
1981	-9,05
1982	-11,63
1983	13,18
1984	52,5
1985	74,03
1986	-57,97
1987	42,44
1988	42,44
1989	-58,67
1990	-6,71
1991	-50,48
1992	10,84
1993	48,76
1994	-18,89
1995	64,2
1996	25,35
1997	39,39
1998	-1,1
1999	-17,71
2000	-30,59
2001	-59,38
2002	-0,39
2003	-9,52
2004	2,88
2005	-28,25
2006	-14,2
2007	46,88
2008	-2,74
2009	41,5
2010	-4,84
2011	54,61
2012	-33,63
2013	64,91
2014	-34,8
2015	43,84
2016	-31,52
2017	16,46
2018	60,93
2019	85,03
2020	-3,44
2021	23,95
2022	-3,91
2023	-15,14
2024	58,12
2025	-36,44
2026	61,86
2027	-46,5
2028	45,01
2029	15,05
2030	-8,12
2031	2,88
2032	-4,37
2033	20,44
2034	-21,69
2035	1,01
2036	29,1
2037	27,93
2038	-34,1
2039	31,67
2040	-91,91
2041	13,65
2042	-31,99
2043	39,86
2044	8,97
2045	49,22
2046	49,22
2047	49,22
