Data from Subt2_15-58-33-184.txt Node
Date: Wed Apr 21 15:58:33 CEST 2021
User: au643642
Spectrometer: FLMS05507
Trigger mode: 0
Integration Time (sec): 1,000000E-3
Scans to average: 5
Electric dark correction enabled: true
Nonlinearity correction enabled: false
Boxcar width: 0
XAxis mode: Pixels
Number of Pixels in Spectrum: 2048
>>>>>Begin Spectral Data<<<<<
0	39
1	39
2	39
3	103,6
4	42,28
5	23,08
6	20,74
7	-0,79
8	-80,84
9	31,51
10	-34,03
11	-52,75
12	-41,98
13	-19,05
14	113,43
15	33,38
16	0,61
17	28,7
18	-20,45
19	-46,66
20	45,08
21	-5,47
22	-58,37
23	-49,94
24	24,96
25	-41,52
26	-10,62
27	107,81
28	27,3
29	26,83
30	-62,11
31	-56,96
32	43,21
33	-18,11
34	-13,9
35	24,96
36	-15,77
37	30,11
38	-6,88
39	93,77
40	30,11
41	-43,86
42	46,02
43	58,66
44	72,23
45	1,08
46	18,87
47	40,87
48	-53,69
49	57,26
50	81,6
51	-10,62
52	-6,41
53	1,55
54	47,89
55	-12,49
56	-12,49
57	34,79
58	17,93
59	71,77
60	33,38
61	-36,83
62	8,1
63	34,79
64	-24,66
65	-16,71
66	28,7
67	-97,69
68	-52,28
69	55,38
70	90,02
71	9,98
72	72,23
73	11,85
74	-44,32
75	-15,77
76	58,19
77	29,17
78	34,32
79	8,1
80	31,04
81	-21,85
82	71,3
83	40,4
84	83
85	37,59
86	78,32
87	-8,28
88	4,83
89	-10,62
90	12,79
91	40,4
92	135,9
93	36,66
94	-33,09
95	38,53
96	-9,68
97	40,87
98	35,72
99	24,49
100	-36,37
101	-17,64
102	7,17
103	-4,07
104	-45,73
105	19,34
106	-0,32
107	-34,96
108	-36,37
109	75,98
110	9,04
111	84,87
112	2,02
113	37,13
114	-13,9
115	62,87
116	38,53
117	105,47
118	23,55
119	32,45
120	1,55
121	33,85
122	12,32
123	106,41
124	-18,58
125	65,68
126	60,53
127	9,98
128	-5,94
129	9,51
130	62,87
131	10,44
132	-24,66
133	1,08
134	-0,32
135	-73,35
136	1,08
137	15,59
138	41,34
139	16,06
140	68,96
141	10,44
142	77,38
143	-36,83
144	68,49
145	18,4
146	3,42
147	-20,92
148	71,77
149	46,02
150	15,13
151	23,55
152	-13,9
153	-10,15
154	44,15
155	-11,56
156	-11,09
157	34,32
158	81,13
159	113,9
160	15,13
161	78,32
162	-40,58
163	67,09
164	-25,13
165	-0,32
166	35,25
167	-61,18
168	65,21
169	24,49
170	38,06
171	-37,3
172	36,66
173	-56,96
174	1,55
175	76,45
176	-22,79
177	-19,51
178	-36,83
179	44,15
180	-3,13
181	-43,86
182	69,43
183	-38,71
184	-2,19
185	3,89
186	42,28
187	9,04
188	-45,26
189	37,59
190	74,58
191	16,06
192	27,76
193	-23,26
194	35,25
195	22,62
196	-19,51
197	16,06
198	-1,73
199	71,3
200	35,25
201	15,13
202	70,36
203	-18,58
204	-38,71
205	54,91
206	10,44
207	15,59
208	-16,71
209	-19,05
210	-10,15
211	-51,81
212	-10,62
213	-26,07
214	53,51
215	23,55
216	11,38
217	-25,13
218	47,43
219	22,62
220	57,72
221	21,21
222	119,98
223	76,45
224	11,85
225	-0,79
226	-21,39
227	-15,77
228	25,89
229	51,17
230	15,13
231	24,49
232	76,92
233	59,13
234	66,15
235	102,66
236	99,38
237	77,85
238	53,98
239	90,49
240	-20,45
241	28,7
242	1,08
243	52,11
244	39,94
245	29,64
246	55,85
247	53,04
248	109,68
249	134,96
250	71,3
251	37,59
252	46,49
253	5,76
254	47,89
255	5,3
256	-46,66
257	35,72
258	30,57
259	21,68
260	102,66
261	-22,32
262	70,83
263	-5
264	7,64
265	90,02
266	55,85
267	24,49
268	166,32
269	246,84
270	616,18
271	1194,76
272	1629,16
273	1586,56
274	1127,35
275	538
276	235,6
277	108,28
278	116,7
279	16,53
280	66,15
281	76,45
282	18,87
283	30,11
284	2,95
285	99,85
286	9,98
287	83,47
288	92,36
289	33,38
290	46,02
291	97,98
292	68,96
293	114,36
294	61,94
295	74,11
296	96,11
297	146,2
298	92,36
299	223,9
300	29,64
301	44,62
302	119,51
303	135,43
304	41,34
305	74,11
306	61,94
307	117,17
308	128,41
309	81,13
310	154,15
311	111,09
312	19,34
313	127
314	125,13
315	170,07
316	125,6
317	193,94
318	246,37
319	352,63
320	304,42
321	217,35
322	172,41
323	125,13
324	174,28
325	152,28
326	111,56
327	135,9
328	203,3
329	193,47
330	171,01
331	145,26
332	218,28
333	111,56
334	98,92
335	120,45
336	228,11
337	120,45
338	108,75
339	116,24
340	151,81
341	174,28
342	156,03
343	144,79
344	163,05
345	204,24
346	227,18
347	139,64
348	165,86
349	125,13
350	147,13
351	134,96
352	169,6
353	173,81
354	121,85
355	74,11
356	207,05
357	70,36
358	133,09
359	164,45
360	170,54
361	167,73
362	177,09
363	180,37
364	283,82
365	165,86
366	148,54
367	142,45
368	69,89
369	188,79
370	166,32
371	178,5
372	197,22
373	198,16
374	158,37
375	141,51
376	176,62
377	252,46
378	216,41
379	207,52
380	207,52
381	167,73
382	251,52
383	295,52
384	431,74
385	1130,16
386	3077,01
387	5318,31
388	6220,82
389	5171,33
390	3538,1
391	2289,66
392	1293,99
393	662,52
394	359,18
395	282,41
396	283,82
397	198,62
398	199,09
399	160,24
400	215,01
401	198,16
402	178,5
403	142,92
404	111,09
405	213,14
406	144,79
407	184,58
408	108,28
409	126,54
410	106,87
411	187,86
412	142,45
413	138,24
414	250,12
415	192,07
416	185,98
417	144,32
418	143,39
419	166,79
420	184,11
421	185,98
422	273,52
423	205,65
424	231,39
425	170,07
426	219,69
427	208,45
428	180,37
429	109,68
430	88,62
431	154,62
432	75,51
433	109,22
434	140,11
435	102,19
436	156,49
437	130,75
438	128,88
439	70,83
440	89,55
441	87,21
442	62,87
443	168,66
444	46,49
445	50,23
446	115,3
447	46,96
448	-9,68
449	117,17
450	141,05
451	126,54
452	76,45
453	114,36
454	73,17
455	80,19
456	84,41
457	51,64
458	69,43
459	33,38
460	18,87
461	26,36
462	124,19
463	90,96
464	134,02
465	102,19
466	105,94
467	151,81
468	121,39
469	21,68
470	47,43
471	53,98
472	115,3
473	325,01
474	1293,06
475	4061,44
476	6204,91
477	6667,4
478	4517,85
479	2814,87
480	1609,5
481	956,02
482	799,21
483	707,46
484	669,07
485	514,6
486	272,12
487	156,49
488	171,01
489	106,41
490	146,2
491	115,77
492	95,64
493	116,7
494	85,81
495	100,32
496	176,15
497	119,51
498	76,92
499	153,69
500	110,62
501	110,15
502	179,9
503	69,43
504	141,98
505	72,23
506	109,68
507	157,9
508	110,15
509	86,28
510	162,58
511	81,13
512	157,9
513	159,77
514	92,83
515	100,32
516	97,04
517	101,73
518	31,98
519	57,72
520	79,26
521	55,85
522	70,36
523	31,04
524	69,89
525	66,15
526	124,19
527	127
528	88,62
529	55,85
530	31,04
531	68,02
532	41,81
533	110,15
534	94,7
535	50,23
536	141,51
537	28,23
538	68,02
539	31,98
540	126,07
541	211,26
542	293,65
543	516
544	1739,63
545	7067,63
546	15699,06
547	19872,23
548	17108,53
549	10803,59
550	6863,07
551	4225,75
552	2392,17
553	1057,6
554	412,55
555	135,9
556	190,2
557	114,83
558	61
559	23,08
560	91,43
561	65,21
562	-15,77
563	23,08
564	0,15
565	-5,47
566	34,79
567	37,59
568	-5,47
569	19,34
570	71,77
571	38,06
572	-39,17
573	-35,43
574	57,26
575	-21,85
576	39
577	-32,15
578	3,89
579	-68,67
580	-10,62
581	-47,6
582	-54,62
583	-143,09
584	-45,73
585	-45,26
586	-74,75
587	-32,15
588	-56,96
589	-30,28
590	-11,56
591	-94,41
592	-93,48
593	-71,94
594	-100,03
595	-59,77
596	-83,18
597	-91,6
598	-136,54
599	-111,26
600	-44,79
601	-93,01
602	-83,64
603	-48,07
604	-63,98
605	-106,58
606	-50,88
607	-21,85
608	-120,16
609	-125,31
610	-67,26
611	-57,9
612	-34,96
613	-79,9
614	-132,8
615	-99,09
616	-109,86
617	-93,01
618	-206,29
619	-16,24
620	-58,37
621	-68,67
622	-44,32
623	-83,18
624	-85,99
625	-41,98
626	-136,07
627	-41,98
628	-127,65
629	-73,35
630	-113,14
631	-85,05
632	-35,43
633	-72,88
634	-52,28
635	-59,77
636	-126,71
637	-41,05
638	-78,03
639	-104,71
640	-104,71
641	-105,18
642	-47,13
643	39
644	-49,94
645	-26,07
646	57,26
647	132,15
648	122,79
649	172,88
650	269,78
651	394,76
652	418,17
653	740,69
654	1057,13
655	1419,92
656	1915,17
657	2238,17
658	2716,1
659	3227,75
660	3812,41
661	4308,6
662	4897,02
663	5214,39
664	5334,7
665	5445,17
666	5367,93
667	5207,37
668	4894,67
669	4576,36
670	4321,24
671	4028,68
672	3788,54
673	3759,98
674	3646,23
675	3506,74
676	3378,94
677	3240,85
678	3215,11
679	2885,56
680	2816,28
681	2631,38
682	2586,91
683	2407,62
684	2223,19
685	2176,84
686	2059,35
687	1895,98
688	1746,65
689	1670,82
690	1598,73
691	1464,39
692	1342,68
693	1272,93
694	1122,67
695	1149,82
696	948,53
697	789,84
698	754,27
699	685,92
700	642,39
701	551,11
702	442,98
703	487,91
704	332,03
705	335,31
706	377,91
707	276,8
708	302,08
709	222,97
710	219,22
711	234,67
712	256,67
713	147,13
714	246,37
715	280,54
716	255,26
717	204,71
718	180,84
719	243,56
720	165,86
721	201,43
722	189,26
723	145,73
724	201,43
725	193,47
726	180,37
727	165,39
728	105
729	161,64
730	142,45
731	105,94
732	173,35
733	166,32
734	158,83
735	172,88
736	238,88
737	147,13
738	171,47
739	175,22
740	132,15
741	85,34
742	130,28
743	161,64
744	194,41
745	179,9
746	72,7
747	184,58
748	133,56
749	138,71
750	182,71
751	88,62
752	159,3
753	162,58
754	163,05
755	262,29
756	169,6
757	258,54
758	148,07
759	165,86
760	251,05
761	250,58
762	141,05
763	265,56
764	197,22
765	273,52
766	294,12
767	315,18
768	291,78
769	516
770	625,54
771	994,41
772	1092,24
773	974,28
774	1045,43
775	960,7
776	953,21
777	1019,22
778	1190,07
779	1623,07
780	2235,36
781	2734,36
782	3357,88
783	3874,2
784	4507,08
785	5302,86
786	6830,3
787	9014,95
788	12547,29
789	17758,73
790	23654,54
791	27886,69
792	28609,92
793	27519,23
794	25849,02
795	25292,91
796	24346,4
797	24308,95
798	24316,44
799	27076,87
800	36615,02
801	42802,93
802	43166,65
803	35759,79
804	29425,83
805	24328,61
806	20386,21
807	17279,85
808	14913,1
809	12833,3
810	11370
811	9997,51
812	8918,06
813	7802,56
814	6917,83
815	6110,35
816	5354,36
817	4858,63
818	4286,6
819	3749,22
820	3247,41
821	2853,73
822	2409,03
823	2097,73
824	1888,96
825	1610,43
826	1442,85
827	1320,21
828	1140,92
829	1110,5
830	980,83
831	824,95
832	919,51
833	787,5
834	743,03
835	726,65
836	671,41
837	632,56
838	547,36
839	618,05
840	652,22
841	636,77
842	531,45
843	496,34
844	510,38
845	503,36
846	491,66
847	517,4
848	386,8
849	419,57
850	465,44
851	430,34
852	375,57
853	400,85
854	424,72
855	378,38
856	402,72
857	373,23
858	430,34
859	400,38
860	277,27
861	350,76
862	348,89
863	193,94
864	301,61
865	279,14
866	208,45
867	285,22
868	331,1
869	369,01
870	348,42
871	514,6
872	1434,43
873	3103,7
874	4013,23
875	4009,48
876	2954,37
877	2966,54
878	3857,82
879	4427,97
880	4603,51
881	4362,9
882	4403,16
883	4272,56
884	3823,18
885	3769,81
886	3965,95
887	4363,84
888	4655
889	4882,5
890	4938,68
891	4964,89
892	4856,29
893	4704,15
894	4367,12
895	4256,64
896	4709,77
897	6002,22
898	7678,04
899	8374,11
900	7583,01
901	6150,61
902	4913,4
903	4061,44
904	3421,07
905	3189,83
906	3035,35
907	3147,7
908	3333,07
909	3759,98
910	4759,86
911	6047,62
912	7077,46
913	7339,6
914	6558,8
915	5353,42
916	4332,95
917	3551,21
918	3076,08
919	2830,32
920	2540,1
921	2461,92
922	2421,2
923	2575,67
924	2821,9
925	3502,52
926	4134,47
927	4790,29
928	5163,84
929	4828,67
930	4324,05
931	3708,02
932	2995,56
933	2595,33
934	2231,14
935	1949,34
936	1730,74
937	1676,91
938	1723,72
939	1752,74
940	1784,57
941	1834,66
942	2000,37
943	2055,6
944	2152,97
945	2437,58
946	2789,13
947	3267,07
948	3704,28
949	4660,62
950	5885,19
951	8152,7
952	12351,15
953	22655,13
954	41121,02
955	55970,78
956	59867,3
957	57196,29
958	49956,54
959	41100,42
960	33648,16
961	28056,62
962	24279,46
963	21072,46
964	18435,14
965	15552,54
966	12875,43
967	10341,1
968	8303,43
969	6747,91
970	5556,11
971	4675,13
972	3920,08
973	3560,57
974	3315,28
975	3228,21
976	3019,44
977	3154,25
978	3199,19
979	3206,68
980	3297,96
981	3213,23
982	3321,83
983	3467,42
984	3556,36
985	3699,13
986	3756,71
987	3869,52
988	3907,9
989	3968,76
990	4060,98
991	4016,97
992	4065,66
993	3997,78
994	3898,54
995	3892,93
996	3699,13
997	3716,45
998	3719,26
999	3831,6
1000	4391,46
1001	5300,52
1002	6599,52
1003	7042,82
1004	6519,47
1005	5271,5
1006	3927,57
1007	3047,99
1008	2231,61
1009	1672,22
1010	1347,83
1011	1058,07
1012	988,79
1013	887,68
1014	811,84
1015	765,03
1016	676,09
1017	646,13
1018	623,2
1019	587,15
1020	646,13
1021	563,75
1022	546,43
1023	505,23
1024	590,9
1025	496,81
1026	446,25
1027	461,7
1028	518,81
1029	546,43
1030	553,92
1031	453,74
1032	474,34
1033	454,21
1034	511,79
1035	477,62
1036	471,53
1037	465,91
1038	480,89
1039	441,57
1040	523,49
1041	460,3
1042	493,06
1043	515,06
1044	464,51
1045	476,68
1046	615,71
1047	872,23
1048	1205,52
1049	1566,9
1050	1740,57
1051	1569,71
1052	1432,55
1053	1206,93
1054	1034,19
1055	943,85
1056	945,25
1057	951,34
1058	891,42
1059	714,01
1060	612,43
1061	580,13
1062	579,66
1063	540,81
1064	523,96
1065	589,49
1066	479,49
1067	513,19
1068	552,51
1069	522,55
1070	522,55
1071	431,27
1072	363,4
1073	400,38
1074	344,67
1075	374,16
1076	481,83
1077	699,03
1078	839,93
1079	996,28
1080	907,81
1081	785,16
1082	687,8
1083	574,05
1084	545,02
1085	510,38
1086	380,72
1087	331,57
1088	336,25
1089	329,69
1090	381,19
1091	363,87
1092	323,61
1093	299,73
1094	339,52
1095	316,59
1096	305,35
1097	340,93
1098	249,65
1099	287,56
1100	266,03
1101	155,56
1102	262,75
1103	269,78
1104	282,88
1105	308,16
1106	281,95
1107	318,46
1108	227,65
1109	229,05
1110	271,18
1111	220,16
1112	220,62
1113	137,77
1114	181,77
1115	212,2
1116	198,16
1117	138,71
1118	268,37
1119	175,22
1120	265,09
1121	236,54
1122	289,9
1123	261,35
1124	211,73
1125	248,71
1126	185,98
1127	287,56
1128	212,2
1129	134,49
1130	241,22
1131	220,16
1132	242,63
1133	281,48
1134	202,84
1135	263,22
1136	321,74
1137	406,93
1138	583,41
1139	698,09
1140	805,76
1141	729,46
1142	670,01
1143	533,32
1144	398,04
1145	332,03
1146	318,46
1147	284,29
1148	222,97
1149	141,98
1150	178,5
1151	167,26
1152	249,18
1153	348,42
1154	524,43
1155	438,76
1156	496,34
1157	404,12
1158	297,39
1159	321,74
1160	531,45
1161	809,5
1162	866,61
1163	633,5
1164	552,04
1165	334,84
1166	274,93
1167	200,03
1168	152,75
1169	90,02
1170	65,68
1171	44,15
1172	87,68
1173	123,73
1174	99,38
1175	175,22
1176	101,26
1177	136,83
1178	194,41
1179	210,79
1180	232,8
1181	342,8
1182	335,78
1183	460,3
1184	760,82
1185	1139,99
1186	1614,65
1187	1851,51
1188	1738,23
1189	1572,52
1190	1620,73
1191	1750,87
1192	1749,93
1193	1593,11
1194	1321,14
1195	1068,83
1196	880,66
1197	844,61
1198	979,89
1199	1168,07
1200	1264,97
1201	1305,7
1202	1164,8
1203	910,15
1204	666,73
1205	498,68
1206	388,68
1207	365,74
1208	179,43
1209	106,41
1210	98,92
1211	126,07
1212	105,94
1213	81,6
1214	106,87
1215	67,55
1216	17,47
1217	90,02
1218	42,74
1219	105,47
1220	47,43
1221	121,39
1222	20,27
1223	136,37
1224	53,51
1225	54,91
1226	48,83
1227	111,56
1228	2,49
1229	59,13
1230	24,96
1231	109,68
1232	23,08
1233	38,06
1234	80,66
1235	63,81
1236	98,45
1237	224,37
1238	211,73
1239	150,41
1240	110,62
1241	139,17
1242	34,79
1243	16,53
1244	47,43
1245	63,34
1246	62,87
1247	98,92
1248	61,94
1249	73,64
1250	53,04
1251	87,68
1252	133,09
1253	72,23
1254	47,89
1255	9,98
1256	-5,94
1257	58,19
1258	24,49
1259	13,25
1260	100,79
1261	66,62
1262	62,87
1263	450,47
1264	610,56
1265	763,16
1266	645,67
1267	443,91
1268	418,63
1269	244,03
1270	257,61
1271	87,21
1272	126,07
1273	19,81
1274	44,15
1275	65,68
1276	70,36
1277	64,75
1278	38,53
1279	22,15
1280	80,66
1281	16,06
1282	104,07
1283	22,15
1284	50,23
1285	79,72
1286	52,11
1287	43,68
1288	-9,22
1289	31,51
1290	-36,83
1291	69,89
1292	70,83
1293	336,72
1294	607,28
1295	758,95
1296	1019,22
1297	1011,26
1298	1000,49
1299	731,8
1300	543,62
1301	384,93
1302	262,75
1303	131,68
1304	98,45
1305	88,15
1306	49,77
1307	89,55
1308	48,36
1309	40,87
1310	15,59
1311	-53,69
1312	39,94
1313	15,13
1314	10,91
1315	-41,52
1316	56,79
1317	29,64
1318	53,04
1319	-4,53
1320	31,51
1321	52,11
1322	89,09
1323	34,79
1324	39
1325	488,38
1326	1422,72
1327	2248
1328	2592,52
1329	1925,94
1330	1422,26
1331	1098,33
1332	770,18
1333	462,17
1334	252,46
1335	157,43
1336	68,96
1337	13,72
1338	-35,43
1339	-29,34
1340	51,17
1341	-10,15
1342	-45,26
1343	64,28
1344	-19,98
1345	31,04
1346	-51,81
1347	-3,6
1348	338,12
1349	621,79
1350	839,93
1351	688,26
1352	536,13
1353	370,42
1354	258,54
1355	165,86
1356	108,75
1357	33,85
1358	-32,15
1359	-25,6
1360	-18,11
1361	-17,17
1362	31,51
1363	-3,13
1364	-17,17
1365	-17,17
1366	-14,83
1367	41,34
1368	6,23
1369	-21,39
1370	-88,33
1371	-62,58
1372	-11,56
1373	21,21
1374	-52,28
1375	-40,11
1376	-80,84
1377	-16,71
1378	3,89
1379	-57,43
1380	-44,79
1381	-22,32
1382	-2,66
1383	-49,94
1384	-34,03
1385	26,83
1386	-63,98
1387	-9,68
1388	-36,37
1389	-7,34
1390	-18,11
1391	43,68
1392	-13,9
1393	-34,49
1394	-11,09
1395	-12,49
1396	-1,26
1397	-56,03
1398	-25,6
1399	-37,77
1400	18,4
1401	6,23
1402	1,55
1403	-36,83
1404	100,32
1405	386,8
1406	527,23
1407	550,64
1408	480,89
1409	324,54
1410	189,26
1411	109,68
1412	64,28
1413	130,28
1414	28,7
1415	-32,62
1416	9,51
1417	-3,6
1418	31,04
1419	46,49
1420	199,09
1421	471,53
1422	741,63
1423	922,79
1424	895,64
1425	698,09
1426	447,66
1427	341,86
1428	255,73
1429	131,68
1430	134,96
1431	118,11
1432	103,6
1433	-66,32
1434	-75,22
1435	88,62
1436	19,81
1437	-2,66
1438	-14,37
1439	12,32
1440	-3,13
1441	39,47
1442	61,94
1443	24,49
1444	138,71
1445	520,21
1446	730,86
1447	1323,95
1448	1928,75
1449	2282,64
1450	2147,82
1451	1550,52
1452	977,09
1453	619,45
1454	462,17
1455	330,16
1456	275,39
1457	111,09
1458	70,83
1459	56,32
1460	10,91
1461	66,15
1462	-64,45
1463	16,06
1464	-25,6
1465	9,51
1466	6,23
1467	27,3
1468	-87,86
1469	-4,07
1470	3,89
1471	71,3
1472	4,36
1473	30,57
1474	-35,43
1475	-10,15
1476	4,83
1477	38,06
1478	31,98
1479	7,17
1480	-49
1481	-33,09
1482	80,19
1483	21,21
1484	-57,43
1485	25,42
1486	244,97
1487	280,54
1488	317,52
1489	294,12
1490	121,39
1491	103,6
1492	134,49
1493	78,32
1494	3,42
1495	34,79
1496	36,19
1497	56,32
1498	90,02
1499	115,3
1500	-13,43
1501	41,34
1502	-29,34
1503	18,87
1504	54,91
1505	0,61
1506	-8,75
1507	-25,13
1508	-24,66
1509	-6,88
1510	-19,98
1511	-10,15
1512	82,07
1513	10,44
1514	2,02
1515	-5
1516	37,13
1517	-16,71
1518	-34,96
1519	55,38
1520	-27,47
1521	27,3
1522	8,57
1523	263,69
1524	518,81
1525	557,19
1526	444,85
1527	635,37
1528	871,76
1529	929,81
1530	814,18
1531	483,7
1532	294,12
1533	224,84
1534	118,58
1535	138,71
1536	85,81
1537	67,09
1538	111,56
1539	-3,13
1540	-63,05
1541	-21,39
1542	1,08
1543	18,87
1544	10,91
1545	40,87
1546	17,47
1547	-59,3
1548	-16,71
1549	23,55
1550	-5,94
1551	-5
1552	119,51
1553	227,65
1554	229,05
1555	212,67
1556	107,34
1557	130,75
1558	79,72
1559	64,28
1560	117,64
1561	19,34
1562	-60,24
1563	63,34
1564	44,15
1565	33,85
1566	-5,47
1567	88,15
1568	-8,28
1569	-5,94
1570	8,57
1571	-18,58
1572	-71,47
1573	-52,28
1574	25,42
1575	18,87
1576	63,34
1577	37,59
1578	31,98
1579	-6,88
1580	-59,3
1581	93,3
1582	30,57
1583	-129,05
1584	-29,34
1585	-35,9
1586	47,89
1587	9,51
1588	-30,75
1589	-72,41
1590	48,36
1591	32,91
1592	45,55
1593	8,1
1594	-7,81
1595	56,79
1596	19,34
1597	25,42
1598	1,08
1599	8,1
1600	64,28
1601	23,08
1602	-41,98
1603	49,77
1604	48,36
1605	5,76
1606	15,59
1607	-39,64
1608	62,4
1609	27,3
1610	-46,66
1611	61,94
1612	29,17
1613	29,64
1614	-11,56
1615	54,91
1616	24,49
1617	31,51
1618	1,55
1619	85,34
1620	-15,77
1621	20,27
1622	39,47
1623	6,7
1624	58,19
1625	34,79
1626	7,17
1627	3,42
1628	25,42
1629	40,87
1630	46,96
1631	-31,69
1632	-9,22
1633	35,72
1634	32,45
1635	4,83
1636	18,87
1637	27,3
1638	39,47
1639	123,26
1640	31,51
1641	5,3
1642	43,21
1643	-0,32
1644	-15,3
1645	-59,3
1646	15,13
1647	39,94
1648	-14,83
1649	-22,32
1650	78,32
1651	-7,81
1652	23,55
1653	-21,85
1654	9,51
1655	3,42
1656	30,11
1657	-59,3
1658	-7,81
1659	-19,51
1660	48,36
1661	-48,54
1662	-15,77
1663	28,23
1664	-27,94
1665	12,79
1666	15,59
1667	16,06
1668	2,02
1669	30,57
1670	25,42
1671	7,17
1672	56,79
1673	-80,37
1674	1,55
1675	28,7
1676	15,13
1677	31,04
1678	-9,22
1679	-20,45
1680	70,83
1681	54,91
1682	51,17
1683	-12,96
1684	41,81
1685	47,89
1686	60,53
1687	5,76
1688	-6,41
1689	-12,49
1690	-53,22
1691	-3,13
1692	21,21
1693	-38,24
1694	16,53
1695	46,49
1696	-5
1697	24,02
1698	48,36
1699	41,34
1700	-1,73
1701	5,3
1702	2,02
1703	-9,22
1704	9,51
1705	88,15
1706	7,17
1707	-12,02
1708	-49,47
1709	-17,64
1710	15,59
1711	121,39
1712	258,07
1713	262,29
1714	263,69
1715	254,33
1716	145,73
1717	91,43
1718	149,94
1719	107,34
1720	58,66
1721	65,68
1722	45,08
1723	46,49
1724	5,3
1725	23,08
1726	31,98
1727	-19,05
1728	34,79
1729	-23,73
1730	63,34
1731	-33,56
1732	-13,9
1733	-42,92
1734	63,81
1735	29,17
1736	24,02
1737	32,45
1738	73,17
1739	63,34
1740	120,92
1741	145,73
1742	52,11
1743	65,21
1744	58,19
1745	57,72
1746	-20,45
1747	37,59
1748	-20,45
1749	5,3
1750	25,42
1751	30,11
1752	58,66
1753	36,19
1754	6,7
1755	17,93
1756	84,87
1757	22,15
1758	46,96
1759	57,26
1760	-57,43
1761	-4,07
1762	-3,6
1763	75,04
1764	-33,09
1765	47,89
1766	36,66
1767	-48,07
1768	46,96
1769	9,98
1770	-66,32
1771	47,89
1772	80,19
1773	50,23
1774	10,91
1775	-3,6
1776	-22,79
1777	51,64
1778	25,89
1779	39,47
1780	-37,77
1781	-7,34
1782	-27,47
1783	-24,2
1784	34,32
1785	40,4
1786	40,87
1787	0,61
1788	-29,34
1789	-5,94
1790	-13,43
1791	-4,53
1792	44,15
1793	2,49
1794	23,08
1795	16,06
1796	-33,56
1797	4,83
1798	-4,07
1799	-53,22
1800	-20,45
1801	-5,47
1802	74,11
1803	28,23
1804	-33,56
1805	12,32
1806	24,49
1807	-1,73
1808	33,85
1809	-17,17
1810	37,59
1811	1,55
1812	35,25
1813	17
1814	31,04
1815	6,23
1816	2,95
1817	-25,6
1818	12,32
1819	17
1820	11,38
1821	53,04
1822	-76,16
1823	-9,22
1824	50,23
1825	60,53
1826	-34,03
1827	81,13
1828	9,04
1829	9,04
1830	-1,26
1831	2,95
1832	66,15
1833	52,57
1834	8,1
1835	79,26
1836	33,85
1837	22,15
1838	-53,69
1839	80,66
1840	20,74
1841	94,24
1842	-41,98
1843	6,7
1844	-23,26
1845	-40,58
1846	51,17
1847	-22,79
1848	-19,51
1849	23,08
1850	-19,05
1851	22,15
1852	-6,88
1853	48,83
1854	19,34
1855	13,25
1856	1,08
1857	68,02
1858	24,96
1859	66,15
1860	-12,49
1861	34,32
1862	39,47
1863	3,42
1864	32,45
1865	52,11
1866	91,9
1867	5,76
1868	-47,6
1869	-25,13
1870	-4,53
1871	41,81
1872	-17,17
1873	-12,96
1874	-12,49
1875	-34,49
1876	-7,81
1877	-18,58
1878	-31,22
1879	-34,03
1880	69,43
1881	75,98
1882	58,66
1883	9,98
1884	12,32
1885	90,49
1886	24,96
1887	-53,22
1888	49,77
1889	6,7
1890	-26,07
1891	52,11
1892	-11,56
1893	37,59
1894	49,77
1895	59,6
1896	-0,32
1897	51,64
1898	-2,66
1899	57,26
1900	-61,64
1901	-34,03
1902	-17,17
1903	-22,32
1904	14,66
1905	46,02
1906	31,51
1907	-1,26
1908	-29,34
1909	-20,92
1910	-42,92
1911	35,72
1912	5,3
1913	60,06
1914	44,15
1915	37,13
1916	-17,64
1917	66,15
1918	82,53
1919	7,17
1920	15,13
1921	-68,2
1922	-13,43
1923	-26,07
1924	-16,71
1925	-20,92
1926	-46,2
1927	-54,15
1928	-21,39
1929	10,91
1930	23,55
1931	-49,94
1932	29,17
1933	-21,39
1934	25,89
1935	-25,6
1936	56,79
1937	-17,17
1938	60,53
1939	-25,13
1940	-41,05
1941	77,85
1942	40,4
1943	24,96
1944	-36,83
1945	24,96
1946	-8,75
1947	89,55
1948	50,7
1949	16,53
1950	-3,6
1951	96,11
1952	63,34
1953	18,87
1954	-6,41
1955	-38,71
1956	-11,56
1957	10,44
1958	-5,47
1959	2,49
1960	48,36
1961	17
1962	33,85
1963	36,66
1964	69,89
1965	49,77
1966	-35,43
1967	-49,47
1968	104,53
1969	11,85
1970	4,83
1971	2,49
1972	30,11
1973	49,77
1974	-30,28
1975	-1,26
1976	-5,47
1977	64,28
1978	38,53
1979	-16,24
1980	-5,47
1981	-27,47
1982	-12,96
1983	9,98
1984	35,72
1985	98,45
1986	-72,88
1987	34,32
1988	53,04
1989	-44,79
1990	-23,26
1991	-92,54
1992	-5
1993	39,94
1994	9,51
1995	63,34
1996	19,34
1997	46,02
1998	-0,32
1999	-42,45
2000	-24,2
2001	-24,2
2002	-6,41
2003	3,89
2004	10,44
2005	-14,83
2006	0,15
2007	42,74
2008	28,23
2009	31,98
2010	2,95
2011	87,68
2012	-30,75
2013	68,49
2014	-12,96
2015	41,34
2016	8,1
2017	25,89
2018	52,11
2019	65,21
2020	-2,19
2021	25,89
2022	-1,26
2023	-1,73
2024	66,62
2025	-16,24
2026	84,87
2027	-49
2028	60,53
2029	24,49
2030	-25,6
2031	-24,66
2032	1,08
2033	22,62
2034	10,91
2035	15,59
2036	27,3
2037	12,79
2038	-36,37
2039	33,85
2040	-94,41
2041	6,23
2042	-9,68
2043	42,74
2044	35,25
2045	51,64
2046	51,64
2047	51,64
