Data from Subt2_16-03-19-689.txt Node
Date: Wed Apr 21 16:03:19 CEST 2021
User: au643642
Spectrometer: FLMS05507
Trigger mode: 0
Integration Time (sec): 2,000000E-3
Scans to average: 10
Electric dark correction enabled: true
Nonlinearity correction enabled: false
Boxcar width: 0
XAxis mode: Pixels
Number of Pixels in Spectrum: 2048
>>>>>Begin Spectral Data<<<<<
0	42,41
1	42,41
2	42,41
3	68,62
4	75,64
5	-12,13
6	24,15
7	7,53
8	-62,92
9	29,77
10	-1,83
11	-35,53
12	-27,11
13	9,87
14	98,11
15	14,09
16	-4,4
17	6,36
18	-19,38
19	-49,34
20	22,75
21	16,9
22	-89,83
23	-35,3
24	76,58
25	63,71
26	41
27	142,58
28	48,73
29	70,49
30	-2,06
31	-21,02
32	76,35
33	28,83
34	29,77
35	24,85
36	21,34
37	54,34
38	22,28
39	73,07
40	40,07
41	0,98
42	57,15
43	64,41
44	99,52
45	11,28
46	50,83
47	71,2
48	-27,57
49	56,68
50	110,99
51	-17,28
52	33,75
53	15,02
54	72,83
55	15,96
56	28,83
57	31,41
58	17,83
59	104,2
60	68,62
61	16,66
62	61,13
63	36,79
64	13,62
65	17,36
66	56,92
67	-48,64
68	-21,49
69	74,24
70	98,81
71	46,15
72	57,62
73	32,81
74	22,04
75	-8,38
76	104,67
77	80,09
78	67,22
79	26,49
80	75,41
81	8
82	69,56
83	79,86
84	101,62
85	25,79
86	100,92
87	54,11
88	33,28
89	37,96
90	13,15
91	59,96
92	125,5
93	60,2
94	-24,53
95	73,07
96	2,62
97	90,39
98	61,6
99	30
100	-2,06
101	-16,34
102	31,88
103	26,49
104	-26,17
105	46,62
106	63,24
107	-3
108	-15,4
109	70,03
110	26,26
111	79,86
112	42,88
113	55,28
114	-4,17
115	116,37
116	53,17
117	115,67
118	30,47
119	67,69
120	38,66
121	55,05
122	23,22
123	128,07
124	29,07
125	101,16
126	68,39
127	53,64
128	42,41
129	55,51
130	62,07
131	22,28
132	-10,49
133	24,15
134	31,88
135	-57,53
136	17,13
137	87,11
138	87,35
139	48,26
140	76,11
141	14,56
142	117,3
143	-12,83
144	79,15
145	50,13
146	37,26
147	-4,4
148	80,79
149	62,07
150	14,79
151	44,28
152	-11,66
153	56,22
154	61,83
155	13,62
156	1,68
157	58,79
158	88,98
159	106,77
160	72,37
161	116,84
162	-37,64
163	86,41
164	-17,04
165	57,62
166	80,56
167	-13,77
168	35,15
169	43,34
170	39,13
171	-35,06
172	45,45
173	-27,57
174	1,68
175	129,01
176	39,13
177	-2,76
178	-30,15
179	73,77
180	22,04
181	-1,59
182	75,88
183	-28,28
184	21,34
185	66,05
186	74
187	43,81
188	-20,79
189	54,81
190	83,37
191	39,6
192	36,09
193	14,56
194	45,68
195	35,85
196	-18,45
197	-7,68
198	-26,4
199	55,98
200	49,66
201	21,58
202	88,52
203	-4,64
204	14,79
205	82,2
206	22,98
207	34,22
208	-8,15
209	5,66
210	8,7
211	-15,4
212	10,58
213	28,6
214	106,77
215	50,13
216	39,83
217	-9,55
218	59,73
219	50,6
220	73,54
221	32,34
222	113,09
223	71,43
224	23,68
225	19,24
226	10,58
227	20,41
228	59,96
229	80,79
230	47,79
231	47,79
232	55,05
233	85,94
234	102,33
235	74,71
236	56,22
237	56,92
238	52
239	78,45
240	-32,02
241	60,9
242	-19,85
243	83,13
244	54,11
245	87,35
246	81,26
247	20,41
248	63,24
249	84,3
250	82,9
251	23,45
252	28,83
253	-2,76
254	54,81
255	5,43
256	-17,98
257	50,13
258	97,18
259	42,64
260	78,92
261	-18,45
262	79,62
263	26,26
264	16,43
265	98,81
266	36,79
267	4,26
268	74
269	8,94
270	14,79
271	27,9
272	-15,17
273	20,64
274	80,79
275	16,9
276	9,87
277	34,22
278	78,45
279	-6,51
280	40,3
281	45,22
282	48,96
283	18,77
284	-1,36
285	48,02
286	-21,25
287	40,77
288	39,6
289	-6,04
290	14,09
291	35,85
292	58,79
293	79,86
294	23,68
295	40,54
296	51,07
297	55,05
298	12,21
299	136,03
300	-18,91
301	-29,91
302	70,26
303	102,56
304	-11,89
305	-2,76
306	28,36
307	17,36
308	56,45
309	7,07
310	65,58
311	19,47
312	-51,92
313	42,64
314	36,79
315	85,01
316	35,62
317	19,24
318	41,94
319	31,41
320	42,41
321	38,66
322	2,38
323	14,56
324	41
325	38,19
326	40,54
327	30
328	112,16
329	53,17
330	56,92
331	26,96
332	108,18
333	16,9
334	-4,17
335	8
336	94,6
337	-1,59
338	-25,23
339	-15,17
340	61,37
341	36,56
342	36,79
343	39,36
344	11,75
345	91,56
346	75,41
347	-1,59
348	41,47
349	-10,02
350	22,04
351	27,19
352	31,64
353	78,69
354	4,02
355	-63,38
356	70,49
357	-40,21
358	29,53
359	60,2
360	31,41
361	72,37
362	57,39
363	45,45
364	129,24
365	21,11
366	-29,45
367	40,3
368	-5,11
369	63,47
370	17,83
371	37,26
372	64,88
373	61,13
374	20,17
375	-17,28
376	37,26
377	112,39
378	59,26
379	66,75
380	50,37
381	-4,17
382	56,22
383	64,88
384	30
385	72,13
386	39,6
387	99,05
388	19,7
389	49,66
390	40,3
391	11,51
392	-7,45
393	-4,87
394	38,43
395	65,81
396	137,9
397	76,58
398	82,43
399	30,94
400	67,69
401	58,56
402	60,66
403	82,66
404	14,79
405	115,2
406	48,26
407	68,39
408	6,6
409	36,79
410	15,96
411	74,71
412	55,51
413	46,62
414	118,47
415	69,09
416	58,32
417	44,28
418	14,09
419	52,24
420	39,13
421	40,54
422	101,16
423	45,92
424	72,37
425	49,66
426	60,2
427	67,69
428	95,3
429	11,98
430	15,96
431	78,92
432	13,62
433	13,38
434	44,05
435	76,11
436	84,54
437	51,07
438	39,83
439	20,87
440	8,24
441	29,53
442	17,83
443	121,52
444	9,64
445	-15,64
446	40,77
447	-0,42
448	-46,53
449	64,64
450	109,35
451	85,71
452	52,71
453	55,28
454	53,17
455	19,47
456	64,41
457	48,49
458	35,15
459	56,68
460	5,43
461	-2,76
462	96,71
463	81,03
464	113,09
465	91,79
466	72,37
467	107,01
468	122,92
469	-9,08
470	-5,11
471	2,38
472	51,3
473	47,56
474	31,17
475	27,9
476	14,79
477	12,68
478	61,6
479	117,07
480	86,88
481	74,71
482	146,56
483	125,03
484	158,03
485	173,95
486	87,35
487	105,6
488	145,39
489	84,77
490	165,99
491	172,31
492	165,52
493	178,63
494	151,24
495	171,14
496	242,29
497	233,16
498	202,73
499	268,04
500	252,35
501	232,93
502	304,55
503	252,35
504	297,29
505	275,06
506	338,95
507	371,02
508	379,44
509	376,4
510	437,72
511	425,79
512	482,66
513	510,51
514	470,26
515	505,13
516	538,37
517	568,79
518	546,79
519	580,5
520	579,79
521	632,92
522	708,76
523	639,71
524	683,48
525	732,16
526	775,93
527	831,4
528	845,91
529	818,06
530	871,66
531	901,15
532	925,73
533	1055,16
534	1050,48
535	1040,41
536	1094,95
537	1097,76
538	1216,42
539	1161,18
540	1268,61
541	1352,87
542	1410,22
543	1415,13
544	1519,99
545	1438,07
546	1424,96
547	1430,58
548	1533,09
549	1652,93
550	1852,34
551	1989,5
552	2142,57
553	2201,08
554	2319,98
555	2356,96
556	2539,99
557	2604,59
558	2684,17
559	2766,56
560	2963,16
561	3059,36
562	3187,85
563	3261,11
564	3333,9
565	3592,77
566	3736,01
567	3863,1
568	3990,19
569	4233,14
570	4374,97
571	4510,72
572	4521,96
573	4540,22
574	4940,91
575	5055,6
576	5055,13
577	5174,03
578	5361,27
579	5358
580	5555,07
581	5623,88
582	5623,41
583	5560,45
584	5803,17
585	5812,76
586	5997,2
587	5965,13
588	5781,4
589	5885,32
590	5907,56
591	5823,76
592	5592,29
593	5625,76
594	5540,09
595	5480,17
596	5325,7
597	5204,93
598	5072,92
599	4938,11
600	5005,05
601	4778,95
602	4777,08
603	4768,18
604	4607,62
605	4549,81
606	4607,15
607	4444,96
608	4376,85
609	4204,11
610	4258,41
611	4188,2
612	4152,15
613	4113,07
614	3911,55
615	3971
616	3972,87
617	3880,89
618	3758,94
619	3809,03
620	3748,18
621	3737,88
622	3868,01
623	3754,26
624	3743,5
625	3769,71
626	3697,15
627	3718,92
628	3641,45
629	3642,62
630	3637,94
631	3661,58
632	3597,68
633	3592,77
634	3523,95
635	3559,3
636	3572,17
637	3696,22
638	3640,75
639	3540,1
640	3617,58
641	3590,43
642	3768,07
643	3785,63
644	3708,86
645	3740,22
646	3838,99
647	3873,16
648	3896,1
649	3902,89
650	3954,14
651	3980,59
652	3993
653	4079,13
654	4171,81
655	4312,48
656	4377,31
657	4365,61
658	4419,91
659	4619,79
660	4646,48
661	4690,71
662	4787,38
663	4814,76
664	4917,51
665	4967,6
666	5122,07
667	5150,39
668	5280,29
669	5320,55
670	5571,46
671	5593,69
672	5680,99
673	5772,98
674	5995,33
675	6010,54
676	6258,87
677	6425,98
678	6528,73
679	6644,36
680	6743,83
681	6861,09
682	7126,98
683	7202,11
684	7302,05
685	7441,78
686	7639,32
687	7783,26
688	7875,24
689	8033
690	8204,56
691	8338,44
692	8436,04
693	8622,34
694	8721,35
695	8960,32
696	8993,32
697	9092,56
698	9227,84
699	9484,83
700	9603,26
701	9731,76
702	9861,66
703	10076,05
704	10169,2
705	10298,4
706	10561,95
707	10533,16
708	10738,89
709	10883,07
710	11013,67
711	11216,83
712	11260,36
713	11282,6
714	11603,48
715	11663,64
716	11761,24
717	11781,36
718	12020,8
719	12258,37
720	12086,34
721	12425,95
722	12420,8
723	12529,17
724	12660,47
725	12761,58
726	12775,39
727	12963,33
728	13067,25
729	13184,05
730	13281,65
731	13305,99
732	13471,93
733	13519,91
734	13644,9
735	13837,99
736	13810,14
737	13923,19
738	13906,34
739	14086,79
740	14026,87
741	14045,6
742	14247,12
743	14337,93
744	14417,74
745	14583,92
746	14353,15
747	14529,15
748	14585,79
749	14562,39
750	14612,94
751	14639,16
752	14691,12
753	14795,04
754	14819,85
755	15037,99
756	14910,66
757	14956,07
758	15028,62
759	14940,85
760	15028,16
761	15128,8
762	15099,54
763	15295,68
764	15194,1
765	15302,7
766	15412
767	15446,88
768	15450,62
769	15545,41
770	15505,16
771	15713,93
772	15723,29
773	15593,63
774	15894,15
775	15835,17
776	15704,57
777	15873,56
778	15868,41
779	16117,91
780	16129,14
781	16202,4
782	16246,17
783	16226,98
784	16285,49
785	16496,84
786	16376,54
787	16368,35
788	16592,34
789	16623,46
790	16673,55
791	16723,17
792	16594,68
793	16730,43
794	16778,41
795	17170,21
796	17041,95
797	17229,2
798	17261,96
799	17238,09
800	17317,2
801	17223,11
802	17400,52
803	17432,59
804	17601,81
805	17568,57
806	17730,3
807	17734,52
808	18055,17
809	17980,51
810	18102,68
811	18067,81
812	18180,86
813	18372,55
814	18467,57
815	18454
816	18630,24
817	18757,8
818	18745,16
819	18827,31
820	18926,55
821	19129,24
822	19069,32
823	19196,65
824	19420,87
825	19406,13
826	19511,69
827	19528,07
828	19635,27
829	19771,72
830	19865,81
831	19821,34
832	20053,05
833	20086,05
834	20049,07
835	20172,42
836	20401,09
837	20450,01
838	20348,9
839	20587,4
840	20730,17
841	20744,21
842	20738,83
843	21083,36
844	21106,06
845	21077,5
846	21350,41
847	21441,93
848	21485,23
849	21627,06
850	21771,94
851	21969,95
852	22002,72
853	22268,13
854	22346,54
855	22563,98
856	22725,01
857	23105,81
858	23259,82
859	23619,09
860	23534,6
861	23822,48
862	23871,87
863	24081,11
864	24185,5
865	24215,93
866	24269,53
867	24241,21
868	24418,15
869	24353,08
870	24382,34
871	24322,42
872	24435,24
873	24502,88
874	24216,86
875	24238,16
876	24256,65
877	24250,33
878	24115,99
879	24103,35
880	24212,18
881	24275,14
882	24106,63
883	24181,52
884	24201,18
885	24163,97
886	24119,5
887	24266,25
888	24144,78
889	24143,14
890	24289,66
891	24307,21
892	24354,02
893	24341,85
894	24288,02
895	24108,73
896	24439,68
897	24430,09
898	24569,12
899	24399,43
900	24618,27
901	24686,38
902	24760,34
903	24868,24
904	24791
905	25011,71
906	24981,05
907	25218,15
908	25235,93
909	25492,69
910	25490,35
911	25594,5
912	25805,85
913	25817,56
914	26000,35
915	26252,66
916	26432,65
917	26606,32
918	26847,86
919	26883,67
920	26980,1
921	27141,36
922	27297,71
923	27350,84
924	27634,28
925	27633,34
926	27771,2
927	27861,78
928	27621,64
929	27788,05
930	27921,23
931	27740,07
932	27669,15
933	27816,84
934	27564,53
935	27358,57
936	27289,29
937	26989,93
938	27054,3
939	26979,17
940	26620,59
941	26384,2
942	26273,26
943	26106,38
944	25844,94
945	25629,85
946	25469,75
947	25274,08
948	25085,44
949	24762,44
950	24951,09
951	24504,98
952	24195,1
953	24238,16
954	23917,51
955	23769,59
956	23571,58
957	23420,15
958	23325,82
959	23090,13
960	22823,54
961	22680,07
962	22667,66
963	22471,76
964	22163,51
965	22092,59
966	21916,82
967	21667,09
968	21833,97
969	21486,86
970	21347,6
971	21250,24
972	21060,65
973	20798,51
974	20665,57
975	20617,35
976	20386,58
977	20196,06
978	20061,24
979	19953,81
980	19910,04
981	19686,99
982	19582,14
983	19385,53
984	19194,08
985	18889,81
986	18765,29
987	18682,9
988	18540,6
989	18286,88
990	18281,73
991	18225,56
992	17904,91
993	17827,44
994	17603,92
995	17549,38
996	17336,39
997	17265,71
998	17090,17
999	17008,25
1000	16842,07
1001	16517,91
1002	16561,21
1003	16383,09
1004	16257,87
1005	16056,82
1006	15797,26
1007	15805,68
1008	15619,37
1009	15470,52
1010	15298,72
1011	15242,55
1012	15153,61
1013	14935
1014	14845,13
1015	14741,91
1016	14591,41
1017	14348,7
1018	14209,9
1019	14202,18
1020	14000,66
1021	13797,97
1022	13775,97
1023	13641,86
1024	13522,25
1025	13364,74
1026	13191,54
1027	13049,7
1028	12940,63
1029	12764,39
1030	12733,26
1031	12660,94
1032	12445,61
1033	12296,28
1034	12112,78
1035	12032,74
1036	11926,48
1037	11892,54
1038	11716,77
1039	11613,55
1040	11579,38
1041	11419,28
1042	11167,44
1043	11135,84
1044	10940,88
1045	10886,11
1046	10810,04
1047	10739,12
1048	10520,75
1049	10403,49
1050	10308,7
1051	10186,76
1052	10144,86
1053	9992,49
1054	9852,29
1055	9657,8
1056	9584,54
1057	9592,03
1058	9473,6
1059	9251,95
1060	9236,27
1061	9073,13
1062	9061,66
1063	8883,55
1064	8809,82
1065	8646,22
1066	8411,46
1067	8366,52
1068	8327,67
1069	8340,31
1070	8245,05
1071	7929,54
1072	7974,48
1073	7842,48
1074	7723,11
1075	7679,11
1076	7569,1
1077	7538,21
1078	7347,22
1079	7304,86
1080	7277
1081	7078,99
1082	6935,99
1083	6917,03
1084	6896,43
1085	6788,77
1086	6664,72
1087	6491,99
1088	6393,22
1089	6282,51
1090	6247,64
1091	6150,97
1092	6060,86
1093	6023,41
1094	5897,49
1095	5809,25
1096	5693,16
1097	5659,93
1098	5524,18
1099	5509,66
1100	5414,17
1101	5277,25
1102	5242,38
1103	5194,63
1104	5171,69
1105	5006,45
1106	4990,07
1107	4966,89
1108	4799,55
1109	4752,27
1110	4685,8
1111	4591
1112	4550,05
1113	4401,89
1114	4397,68
1115	4331,44
1116	4244,61
1117	4096,68
1118	4129,45
1119	4087,79
1120	4050,57
1121	3923,72
1122	3868,48
1123	3812,54
1124	3739,75
1125	3696,69
1126	3624,36
1127	3673,75
1128	3491,19
1129	3413,25
1130	3463,1
1131	3371,82
1132	3311,2
1133	3289,67
1134	3164,92
1135	3144,09
1136	3114,36
1137	2984,7
1138	3033,85
1139	2966,91
1140	2931,1
1141	2899,03
1142	2889,44
1143	2850,11
1144	2765,85
1145	2672,23
1146	2684,64
1147	2694,94
1148	2625,19
1149	2509,57
1150	2515,65
1151	2420,16
1152	2421,09
1153	2379,9
1154	2348,54
1155	2257,02
1156	2301,26
1157	2299,39
1158	2216,3
1159	2148,19
1160	2100,21
1161	2146,78
1162	2111,91
1163	2007,29
1164	2093,65
1165	1945,97
1166	1960,24
1167	1916,94
1168	1839,94
1169	1844,62
1170	1792,19
1171	1738,13
1172	1776,98
1173	1792,89
1174	1733,91
1175	1805,07
1176	1624,84
1177	1621,33
1178	1638,42
1179	1596,76
1180	1583,18
1181	1610,8
1182	1487,92
1183	1477,16
1184	1510,39
1185	1460,3
1186	1444,86
1187	1427,07
1188	1418,17
1189	1316,6
1190	1354,04
1191	1346,32
1192	1255,27
1193	1256,21
1194	1208,93
1195	1278,21
1196	1250,36
1197	1222,74
1198	1273,76
1199	1265,57
1200	1202,61
1201	1226,95
1202	1148,08
1203	1118,35
1204	1053,05
1205	1025,43
1206	1056,8
1207	1092,14
1208	1022,86
1209	984,47
1210	1002,26
1211	998,52
1212	982,13
1213	943,51
1214	965,28
1215	939,53
1216	877,51
1217	916,6
1218	859,25
1219	938,36
1220	877,04
1221	898,58
1222	780,85
1223	881,49
1224	833,27
1225	778,51
1226	784,36
1227	818,76
1228	715,55
1229	751,59
1230	689,33
1231	775,93
1232	708,76
1233	692,84
1234	722,8
1235	683,25
1236	658,2
1237	705,01
1238	681,61
1239	646,03
1240	615,37
1241	675,52
1242	570,9
1243	578,62
1244	618,65
1245	613,5
1246	623,33
1247	638,54
1248	606,48
1249	573,94
1250	576,99
1251	594,54
1252	616,31
1253	543,98
1254	530,64
1255	525,96
1256	476,81
1257	498,34
1258	516,37
1259	480,79
1260	520,81
1261	499,98
1262	400,98
1263	523,86
1264	401,91
1265	434,21
1266	422,98
1267	394,19
1268	479,62
1269	379,91
1270	464,41
1271	375,7
1272	450,13
1273	375,23
1274	368,21
1275	366,34
1276	382,25
1277	353,46
1278	364,93
1279	359,08
1280	365,87
1281	349,95
1282	393,25
1283	301,5
1284	324,68
1285	359,32
1286	346,68
1287	309,46
1288	241,82
1289	322,34
1290	238,78
1291	306,65
1292	263,59
1293	281,38
1294	307,59
1295	215,61
1296	316,48
1297	196,18
1298	279,5
1299	310,16
1300	296,82
1301	278,8
1302	280,21
1303	269,67
1304	242,52
1305	273,65
1306	258,91
1307	277,87
1308	220,29
1309	234,8
1310	239,25
1311	184,48
1312	265,93
1313	236,2
1314	214,67
1315	139,07
1316	251,42
1317	239,48
1318	232,23
1319	195,24
1320	206,71
1321	218,88
1322	244,86
1323	148,2
1324	168,56
1325	187,29
1326	144,92
1327	153,11
1328	226,61
1329	117,77
1330	156,86
1331	152,41
1332	137,43
1333	135,56
1334	131,35
1335	168,8
1336	150,54
1337	145,63
1338	89,69
1339	87,58
1340	132,05
1341	120,35
1342	118,01
1343	163,18
1344	75,41
1345	147,5
1346	-2,06
1347	47,79
1348	47,79
1349	71,2
1350	108,64
1351	62,3
1352	103,03
1353	70,96
1354	97,88
1355	85,94
1356	128,31
1357	75,88
1358	8,94
1359	55,05
1360	62,77
1361	74,24
1362	132,05
1363	113,09
1364	81,03
1365	63,94
1366	42,64
1367	125,5
1368	83,37
1369	38,9
1370	13,62
1371	15,73
1372	67,92
1373	102,09
1374	11,75
1375	26,96
1376	8
1377	21,34
1378	86,41
1379	21,11
1380	46,62
1381	19
1382	34,22
1383	17,6
1384	43,34
1385	77,52
1386	28,36
1387	59,73
1388	37,73
1389	62,77
1390	69,09
1391	98,35
1392	11,75
1393	15,26
1394	34,68
1395	39,83
1396	19
1397	-27,81
1398	14,09
1399	33,05
1400	102,09
1401	61,83
1402	34,68
1403	6,13
1404	59,96
1405	94,6
1406	77,75
1407	17,13
1408	37,02
1409	82,43
1410	41,71
1411	16,19
1412	-0,42
1413	90,62
1414	31,41
1415	13,62
1416	41,71
1417	45,92
1418	62,3
1419	-54,49
1420	-6,98
1421	51,07
1422	60,66
1423	35,62
1424	61,13
1425	73,07
1426	9,87
1427	85,71
1428	96,47
1429	26,49
1430	62,3
1431	63,24
1432	87,35
1433	-54,02
1434	-28,51
1435	111,22
1436	70,96
1437	-2,76
1438	-10,02
1439	46,39
1440	5,19
1441	79,39
1442	122,22
1443	-13,53
1444	17,36
1445	39,83
1446	22,75
1447	55,51
1448	39,36
1449	21,34
1450	8,47
1451	21,81
1452	-8,38
1453	-60,81
1454	20,64
1455	18,07
1456	96,01
1457	27,19
1458	35,62
1459	76,81
1460	-4,17
1461	82,2
1462	-2,76
1463	24,39
1464	9,41
1465	52
1466	17,6
1467	70,73
1468	-50,28
1469	28,83
1470	3,32
1471	94,13
1472	20,41
1473	29,77
1474	13,38
1475	2,38
1476	45,68
1477	74,24
1478	40,3
1479	41,71
1480	-12,83
1481	3,32
1482	101,62
1483	0,28
1484	-42,55
1485	-16,34
1486	46,62
1487	9,41
1488	28,83
1489	57,62
1490	-19,38
1491	51,07
1492	40,3
1493	65,81
1494	-26,64
1495	75,18
1496	36,79
1497	63,47
1498	102,09
1499	114,26
1500	10,34
1501	77,52
1502	-20,08
1503	32,34
1504	90,86
1505	27,66
1506	32,81
1507	9,87
1508	-4,64
1509	-10,72
1510	14,79
1511	2,62
1512	99,98
1513	47,09
1514	-7,91
1515	-0,89
1516	80,09
1517	-12,83
1518	28,6
1519	73,3
1520	5,43
1521	39,13
1522	-69,47
1523	-11,42
1524	91,32
1525	26,73
1526	19,94
1527	53,41
1528	46,39
1529	9,87
1530	122,69
1531	0,51
1532	27,9
1533	21,34
1534	-1,13
1535	30,94
1536	25,09
1537	34,92
1538	103,26
1539	38,66
1540	-16,81
1541	2,15
1542	-9,79
1543	66,28
1544	27,19
1545	65,58
1546	38,66
1547	-18,91
1548	11,75
1549	52,47
1550	-35,53
1551	13,38
1552	14,09
1553	43,11
1554	-4,4
1555	48,96
1556	6,36
1557	52,24
1558	40,3
1559	40,77
1560	54,58
1561	-16,81
1562	-24,53
1563	96,47
1564	104,2
1565	18,07
1566	33,51
1567	117,07
1568	46,39
1569	0,75
1570	11,75
1571	9,64
1572	-45,6
1573	-1,13
1574	13,62
1575	9,87
1576	62,3
1577	39,13
1578	70,49
1579	43,11
1580	-35,77
1581	124,33
1582	46,39
1583	-63,15
1584	8,24
1585	-27,81
1586	49,9
1587	8,94
1588	-26,87
1589	-40,45
1590	70,03
1591	8,94
1592	28,6
1593	7,3
1594	-11,19
1595	44,28
1596	45,68
1597	38,66
1598	18,07
1599	9,64
1600	41,47
1601	17,83
1602	-49,11
1603	59,03
1604	29,53
1605	26,49
1606	30
1607	-33,43
1608	41,94
1609	36,79
1610	1,92
1611	56,68
1612	34,45
1613	59,73
1614	24,15
1615	54,34
1616	37,49
1617	53,17
1618	-4,64
1619	79,86
1620	15,96
1621	13,62
1622	36,56
1623	23,68
1624	51,77
1625	48,02
1626	32,81
1627	-8,15
1628	27,66
1629	31,64
1630	69,32
1631	-12,83
1632	44,75
1633	3,09
1634	58,09
1635	30,7
1636	22,28
1637	34,92
1638	55,05
1639	112,86
1640	12,68
1641	13,85
1642	44,28
1643	13,62
1644	-9,08
1645	-45,6
1646	23,22
1647	24,15
1648	-26,4
1649	-46,77
1650	111,22
1651	-19,38
1652	23,68
1653	-13,3
1654	23,45
1655	26,96
1656	-3,47
1657	-31,32
1658	-12,6
1659	5,43
1660	40,77
1661	-33,89
1662	-36,23
1663	33,75
1664	-17,98
1665	30
1666	62,3
1667	-2,76
1668	-6,74
1669	33,75
1670	52
1671	2,62
1672	63,24
1673	-57,07
1674	29,3
1675	37,96
1676	46,62
1677	32,34
1678	-21,96
1679	-15,4
1680	77,98
1681	70,26
1682	52,47
1683	11,04
1684	55,75
1685	59,03
1686	50,13
1687	35,39
1688	33,75
1689	16,19
1690	0,75
1691	15,96
1692	32,34
1693	-21,96
1694	1,45
1695	31,88
1696	-20,55
1697	26,26
1698	71,9
1699	25,09
1700	5,19
1701	-0,19
1702	1,21
1703	8
1704	0,04
1705	101,16
1706	-5,57
1707	32,81
1708	13,38
1709	-14,7
1710	-0,89
1711	35,85
1712	4,72
1713	-36,94
1714	15,73
1715	37,26
1716	2,38
1717	-43,49
1718	52,94
1719	-5,57
1720	-0,66
1721	39,6
1722	16,43
1723	-4,64
1724	-22,89
1725	12,21
1726	32,58
1727	-7,68
1728	37,96
1729	-15,4
1730	77,98
1731	-13,77
1732	-16,34
1733	-28,51
1734	32,11
1735	37,96
1736	74,47
1737	39,6
1738	50,6
1739	14,32
1740	63,47
1741	107,71
1742	24,15
1743	21,81
1744	42,64
1745	-0,19
1746	-12,83
1747	30,94
1748	-22,19
1749	-12,36
1750	15,49
1751	30,24
1752	56,22
1753	56,92
1754	38,43
1755	64,88
1756	97,41
1757	53,88
1758	46,39
1759	71,2
1760	-48,64
1761	5,43
1762	-7,91
1763	67,92
1764	-5,57
1765	25,32
1766	17,36
1767	-28,04
1768	35,15
1769	44,98
1770	-11,66
1771	62,77
1772	80,09
1773	35,15
1774	-0,19
1775	35,85
1776	-14,7
1777	37,73
1778	20,87
1779	51,07
1780	-5,34
1781	11,75
1782	-7,45
1783	-22,19
1784	35,15
1785	55,28
1786	68,62
1787	-8,38
1788	-35,06
1789	-6,51
1790	-23,36
1791	-14,94
1792	17,36
1793	3,32
1794	40,3
1795	0,98
1796	-17,04
1797	22,28
1798	2,62
1799	-56,6
1800	-10,72
1801	2,15
1802	83,37
1803	55,05
1804	4,26
1805	27,66
1806	-5,57
1807	-33,19
1808	23,45
1809	-2,76
1810	80,56
1811	-3
1812	31,88
1813	21,58
1814	20,64
1815	0,98
1816	30,47
1817	-6,51
1818	4,02
1819	15,26
1820	26,96
1821	53,17
1822	-38,11
1823	16,9
1824	72,13
1825	61,6
1826	-13,3
1827	83,37
1828	27,43
1829	12,21
1830	-17,28
1831	7,07
1832	66,52
1833	25,09
1834	41,24
1835	50,13
1836	-2,53
1837	33,28
1838	-24,3
1839	93,67
1840	33,51
1841	80,32
1842	-10,96
1843	-3,23
1844	-6,51
1845	-3,47
1846	74,71
1847	8,94
1848	9,64
1849	26,73
1850	1,92
1851	48,49
1852	13,15
1853	37,73
1854	-5,11
1855	31,64
1856	26,26
1857	81,03
1858	58,09
1859	81,96
1860	-3,7
1861	45,68
1862	44,28
1863	39,6
1864	1,68
1865	54,58
1866	84,07
1867	4,26
1868	0,28
1869	-53,79
1870	33,28
1871	61,13
1872	15,96
1873	30,47
1874	0,04
1875	-48,87
1876	-3,47
1877	1,68
1878	-18,91
1879	-6,98
1880	71,43
1881	68,39
1882	98,81
1883	15,73
1884	26,49
1885	60,66
1886	15,02
1887	16,9
1888	67,92
1889	26,02
1890	-7,91
1891	71,43
1892	8,94
1893	87,11
1894	80,56
1895	52,47
1896	0,75
1897	43,81
1898	23,22
1899	61,13
1900	-24,77
1901	-18,45
1902	13,62
1903	-13,77
1904	22,51
1905	54,34
1906	54,11
1907	-17,04
1908	5,9
1909	-10,49
1910	-42,32
1911	22,75
1912	-4,17
1913	62,07
1914	10,11
1915	54,81
1916	-11,42
1917	28,13
1918	85,01
1919	33,51
1920	41
1921	-90,3
1922	9,17
1923	-12,13
1924	-4,87
1925	-6,74
1926	-16,57
1927	-43,96
1928	1,92
1929	1,21
1930	0,28
1931	-10,72
1932	68,86
1933	-7,45
1934	31,64
1935	-22,43
1936	58,09
1937	15,96
1938	34,22
1939	-7,21
1940	-29,68
1941	66,98
1942	35,39
1943	69,09
1944	-54,72
1945	29,77
1946	-11,42
1947	74,47
1948	51,3
1949	33,51
1950	10,58
1951	104,9
1952	78,92
1953	14,09
1954	33,05
1955	-8,15
1956	-12,83
1957	12,68
1958	15,49
1959	4,96
1960	25,79
1961	19,47
1962	55,05
1963	14,56
1964	72,13
1965	57,62
1966	-21,96
1967	-48,64
1968	83,37
1969	0,04
1970	28,13
1971	6,13
1972	8,7
1973	52,71
1974	1,45
1975	21,81
1976	13,38
1977	59,49
1978	26,49
1979	-17,51
1980	16,19
1981	13,15
1982	10,34
1983	2,62
1984	44,51
1985	56,22
1986	-41,38
1987	48,49
1988	54,34
1989	-68,3
1990	-2,76
1991	-39,28
1992	-6,51
1993	56,22
1994	3,55
1995	84,54
1996	15,96
1997	55,28
1998	17,83
1999	10,34
2000	7,53
2001	-58
2002	-0,66
2003	11,04
2004	17,6
2005	16,43
2006	-14
2007	50,13
2008	8
2009	37,73
2010	-21,02
2011	83,6
2012	-27,81
2013	91,32
2014	5,19
2015	42,64
2016	-0,19
2017	37,73
2018	85,24
2019	84,07
2020	-1,13
2021	51,07
2022	5,66
2023	-7,45
2024	67,22
2025	3,55
2026	61,13
2027	-36,7
2028	54,11
2029	22,75
2030	-27,57
2031	21,34
2032	11,28
2033	22,75
2034	-1,83
2035	14,09
2036	33,98
2037	39,6
2038	-5,81
2039	34,45
2040	-72,04
2041	11,28
2042	13,15
2043	41,71
2044	22,75
2045	35,85
2046	35,85
2047	35,85
