Tid	Kanal A	Kanal B
(ms)	(V)	(V)

0.00000000	3.85826800	5.51181100
0.03060800	3.77952800	5.51181100
0.06121600	3.70078700	5.51181100
0.09182400	3.62204700	5.51181100
0.12243200	3.54330700	5.51181100
0.15304000	3.46456700	5.51181100
0.18364800	3.38582700	5.51181100
0.21425600	3.30708700	5.51181100
0.24486400	3.22834600	5.51181100
0.27547200	3.14960600	5.51181100
0.30608000	3.07086600	5.51181100
0.33668800	2.99212600	5.51181100
0.36729600	2.91338600	5.51181100
0.39790400	2.83464600	5.51181100
0.42851200	2.75590500	5.43307100
0.45912000	2.67716500	5.43307100
0.48972800	2.59842500	5.43307100
0.52033600	2.51968500	5.43307100
0.55094400	2.44094500	5.43307100
0.58155200	2.44094500	5.43307100
0.61216000	2.36220500	5.43307100
0.64276800	2.28346500	5.43307100
0.67337600	2.28346500	5.43307100
0.70398400	2.20472400	5.43307100
0.73459200	2.12598400	5.43307100
0.76520000	2.12598400	5.43307100
0.79580800	2.04724400	5.43307100
0.82641600	2.04724400	5.43307100
0.85702400	1.96850400	5.43307100
0.88763200	1.96850400	5.43307100
0.91824000	1.88976400	5.43307100
0.94884800	1.88976400	5.35433100
0.97945600	1.81102400	5.35433100
1.01006400	1.81102400	5.43307100
1.04067200	1.81102400	5.35433100
1.07128000	1.73228300	5.35433100
1.10188800	1.73228300	5.35433100
1.13249600	1.73228300	5.35433100
1.16310400	1.65354300	5.35433100
1.19371200	1.65354300	5.35433100
1.22432000	1.65354300	5.35433100
1.25492800	1.57480300	5.35433100
1.28553600	1.57480300	5.35433100
1.31614400	1.57480300	5.35433100
1.34675200	1.49606300	5.35433100
1.37736000	1.49606300	5.35433100
1.40796800	1.41732300	5.35433100
1.43857600	1.41732300	5.35433100
1.46918400	1.41732300	5.35433100
1.49979200	1.33858300	5.27559000
1.53040000	1.33858300	5.27559000
1.56100800	1.25984300	5.27559000
1.59161600	1.25984300	5.27559000
1.62222400	1.18110200	5.27559000
1.65283200	1.18110200	5.27559000
1.68344000	1.18110200	5.27559000
1.71404800	1.10236200	5.27559000
1.74465601	1.02362200	5.27559000
1.77526401	1.02362200	5.27559000
1.80587201	1.02362200	5.27559000
1.83648001	0.94488190	5.27559000
1.86708801	0.94488190	5.27559000
1.89769601	0.86614170	5.27559000
1.92830401	0.86614170	5.27559000
1.95891201	0.78740160	5.27559000
1.98952001	0.78740160	5.19685000
2.02012801	0.70866140	5.27559000
2.05073601	0.70866140	5.19685000
2.08134401	0.70866140	5.19685000
2.11195201	0.62992130	5.19685000
2.14256001	0.62992130	5.19685000
2.17316801	0.62992130	5.19685000
2.20377601	0.62992130	5.19685000
2.23438401	0.55118110	5.19685000
2.26499201	0.55118110	5.19685000
2.29560001	0.55118110	5.19685000
2.32620801	0.47244100	5.19685000
2.35681601	0.47244100	5.19685000
2.38742401	0.47244100	5.19685000
2.41803201	0.47244100	5.19685000
2.44864001	0.39370080	5.19685000
2.47924801	0.39370080	5.19685000
2.50985601	0.39370080	5.19685000
2.54046401	0.39370080	5.19685000
2.57107201	0.39370080	5.11811000
2.60168001	0.39370080	5.11811000
2.63228801	0.39370080	5.11811000
2.66289601	0.39370080	5.11811000
2.69350401	0.31496060	5.11811000
2.72411201	0.39370080	5.11811000
2.75472001	0.31496060	5.11811000
2.78532801	0.39370080	5.11811000
2.81593601	0.31496060	5.11811000
2.84654401	0.31496060	5.11811000
2.87715201	0.31496060	5.11811000
2.90776001	0.31496060	5.03937000
2.93836801	0.31496060	5.11811000
2.96897601	0.31496060	5.11811000
2.99958401	0.31496060	5.11811000
3.03019201	0.31496060	5.11811000
3.06080001	0.31496060	5.03937000
3.09140801	0.31496060	5.11811000
3.12201601	0.31496060	5.03937000
3.15262401	0.31496060	5.03937000
3.18323201	0.31496060	5.03937000
3.21384001	0.31496060	5.03937000
3.24444801	0.31496060	5.03937000
3.27505601	0.31496060	5.03937000
3.30566401	0.31496060	5.03937000
3.33627201	0.31496060	5.03937000
3.36688001	0.31496060	5.03937000
3.39748801	0.39370080	5.03937000
3.42809601	0.39370080	5.03937000
3.45870401	0.39370080	5.03937000
3.48931201	0.39370080	5.03937000
3.51992001	0.39370080	4.96063000
3.55052801	0.39370080	4.96063000
3.58113601	0.39370080	4.96063000
3.61174401	0.39370080	4.96063000
3.64235201	0.47244100	4.96063000
3.67296001	0.47244100	4.96063000
3.70356801	0.47244100	4.96063000
3.73417601	0.47244100	4.96063000
3.76478401	0.55118110	4.96063000
3.79539201	0.55118110	4.96063000
3.82600001	0.62992130	4.96063000
3.85660801	0.62992130	4.96063000
3.88721601	0.62992130	4.96063000
3.91782401	0.70866140	4.96063000
3.94843201	0.78740160	4.96063000
3.97904001	0.78740160	4.96063000
4.00964801	0.86614170	4.96063000
4.04025601	0.86614170	4.88189000
4.07086401	0.94488190	4.88189000
4.10147201	0.94488190	4.96063000
4.13208001	1.02362200	4.96063000
4.16268801	1.02362200	4.88189000
4.19329601	1.10236200	4.88189000
4.22390401	1.18110200	4.88189000
4.25451201	1.25984300	4.88189000
4.28512001	1.25984300	4.88189000
4.31572801	1.33858300	4.88189000
4.34633601	1.41732300	4.88189000
4.37694401	1.49606300	4.88189000
4.40755201	1.49606300	4.88189000
4.43816001	1.57480300	4.88189000
4.46876801	1.65354300	4.88189000
4.49937601	1.73228300	4.88189000
4.52998401	1.81102400	4.88189000
4.56059201	1.81102400	4.88189000
4.59120001	1.88976400	4.80315000
4.62180801	1.96850400	4.88189000
4.65241601	2.04724400	4.88189000
4.68302401	2.04724400	4.80315000
4.71363201	2.12598400	4.80315000
4.74424001	2.20472400	4.80315000
4.77484801	2.20472400	4.80315000
4.80545601	2.28346500	4.80315000
4.83606401	2.36220500	4.80315000
4.86667201	2.36220500	4.80315000
4.89728001	2.44094500	4.80315000
4.92788801	2.44094500	4.80315000
4.95849601	2.51968500	4.80315000
4.98910401	2.59842500	4.80315000
5.01971201	2.67716500	4.80315000
5.05032001	2.67716500	4.80315000
5.08092801	2.75590500	4.80315000
5.11153601	2.75590500	4.80315000
5.14214401	2.83464600	4.72441000
5.17275201	2.91338600	4.72441000
5.20336002	2.91338600	4.72441000
5.23396802	2.99212600	4.72441000
5.26457602	2.99212600	4.72441000
5.29518402	3.07086600	4.72441000
5.32579202	3.14960600	4.72441000
5.35640002	3.14960600	4.72441000
5.38700802	3.22834600	4.72441000
5.41761602	3.22834600	4.72441000
5.44822402	3.30708700	4.72441000
5.47883202	3.38582700	4.72441000
5.50944002	3.38582700	4.72441000
5.54004802	3.46456700	4.72441000
5.57065602	3.46456700	4.64566900
5.60126402	3.54330700	4.64566900
5.63187202	3.62204700	4.72441000
5.66248002	3.70078700	4.64566900
5.69308802	3.70078700	4.64566900
5.72369602	3.77952800	4.64566900
5.75430402	3.77952800	4.64566900
5.78491202	3.85826800	4.64566900
5.81552002	3.93700800	4.64566900
5.84612802	4.01574800	4.64566900
5.87673602	4.09448800	4.64566900
5.90734402	4.09448800	4.64566900
5.93795202	4.17322800	4.64566900
5.96856002	4.25196800	4.64566900
5.99916802	4.33070900	4.64566900
6.02977602	4.40944900	4.64566900
6.06038402	4.40944900	4.64566900
6.09099202	4.56692900	4.64566900
6.12160002	4.56692900	4.56692900
6.15220802	4.64566900	4.64566900
6.18281602	4.72441000	4.56692900
6.21342402	4.80315000	4.64566900
6.24403202	4.88189000	4.56692900
6.27464002	4.96063000	4.56692900
6.30524802	5.03937000	4.56692900
6.33585602	5.11811000	4.56692900
6.36646402	5.19685000	4.56692900
6.39707202	5.27559000	4.56692900
6.42768002	5.35433100	4.56692900
6.45828802	5.43307100	4.56692900
6.48889602	5.51181100	4.56692900
6.51950402	5.59055100	4.56692900
6.55011202	5.66929100	4.56692900
6.58072002	5.74803200	4.56692900
6.61132802	5.74803200	4.56692900
6.64193602	5.90551200	4.48818900
6.67254402	5.90551200	4.56692900
6.70315202	5.98425200	4.56692900
6.73376002	6.06299200	4.48818900
6.76436802	6.14173200	4.48818900
6.79497602	6.14173200	4.48818900
6.82558402	6.22047200	4.48818900
6.85619202	6.29921200	4.48818900
6.88680002	6.37795300	4.48818900
6.91740802	6.45669300	4.48818900
6.94801602	6.45669300	4.48818900
6.97862402	6.53543300	4.48818900
7.00923202	6.61417300	4.48818900
7.03984002	6.61417300	4.48818900
7.07044802	6.69291400	4.48818900
7.10105602	6.77165400	4.48818900
7.13166402	6.77165400	4.48818900
7.16227202	6.85039400	4.48818900
7.19288002	6.85039400	4.48818900
7.22348802	6.92913400	4.48818900
7.25409602	6.92913400	4.40944900
7.28470402	7.00787400	4.40944900
7.31531202	7.08661400	4.40944900
7.34592002	7.08661400	4.40944900
7.37652802	7.08661400	4.40944900
7.40713602	7.16535400	4.40944900
7.43774402	7.16535400	4.40944900
7.46835202	7.24409400	4.40944900
7.49896002	7.24409400	4.40944900
7.52956802	7.24409400	4.40944900
7.56017602	7.32283400	4.40944900
7.59078402	7.32283400	4.40944900
7.62139202	7.32283400	4.40944900
7.65200002	7.32283400	4.40944900
7.68260802	7.40157500	4.40944900
7.71321602	7.40157500	4.40944900
7.74382402	7.48031500	4.40944900
7.77443202	7.48031500	4.33070900
7.80504002	7.48031500	4.40944900
7.83564802	7.55905500	4.33070900
7.86625602	7.55905500	4.33070900
7.89686402	7.55905500	4.33070900
7.92747202	7.63779500	4.33070900
7.95808002	7.63779500	4.33070900
7.98868802	7.63779500	4.33070900
8.01929602	7.63779500	4.33070900
8.04990402	7.71653600	4.33070900
8.08051202	7.71653600	4.33070900
8.11112002	7.71653600	4.33070900
8.14172802	7.71653600	4.33070900
8.17233602	7.71653600	4.33070900
8.20294402	7.79527600	4.33070900
8.23355202	7.79527600	4.33070900
8.26416002	7.79527600	4.25196800
8.29476802	7.79527600	4.33070900
8.32537602	7.79527600	4.25196800
8.35598402	7.87401600	4.25196800
8.38659202	7.87401600	4.25196800
8.41720002	7.87401600	4.25196800
8.44780802	7.87401600	4.25196800
8.47841602	7.87401600	4.25196800
8.50902402	7.95275600	4.25196800
8.53963202	7.95275600	4.25196800
8.57024002	7.95275600	4.25196800
8.60084802	7.95275600	4.25196800
8.63145602	7.95275600	4.25196800
8.66206402	7.95275600	4.25196800
8.69267203	7.95275600	4.25196800
8.72328003	7.95275600	4.25196800
8.75388803	7.95275600	4.17322800
8.78449603	7.95275600	4.17322800
8.81510403	7.95275600	4.17322800
8.84571203	7.95275600	4.17322800
8.87632003	7.95275600	4.17322800
8.90692803	7.95275600	4.17322800
8.93753603	7.95275600	4.17322800
8.96814403	7.95275600	4.17322800
8.99875203	7.95275600	4.17322800
9.02936003	7.95275600	4.17322800
9.05996803	7.95275600	4.17322800
9.09057603	7.95275600	4.17322800
9.12118403	7.95275600	4.17322800
9.15179203	7.95275600	4.17322800
9.18240003	7.95275600	4.17322800
9.21300803	7.95275600	4.17322800
9.24361603	7.95275600	4.17322800
9.27422403	7.95275600	4.09448800
9.30483203	7.95275600	4.17322800
9.33544003	7.95275600	4.09448800
9.36604803	7.95275600	4.09448800
9.39665603	7.95275600	4.09448800
9.42726403	7.87401600	4.09448800
9.45787203	7.87401600	4.09448800
9.48848003	7.87401600	4.09448800
9.51908803	7.87401600	4.09448800
9.54969603	7.87401600	4.09448800
9.58030403	7.87401600	4.09448800
9.61091203	7.87401600	4.09448800
9.64152003	7.87401600	4.09448800
9.67212803	7.87401600	4.09448800
9.70273603	7.87401600	4.09448800
9.73334403	7.87401600	4.09448800
9.76395203	7.79527600	4.01574800
9.79456003	7.79527600	4.09448800
9.82516803	7.79527600	4.09448800
9.85577603	7.79527600	4.09448800
9.88638403	7.79527600	4.09448800
9.91699203	7.79527600	4.01574800
9.94760003	7.79527600	4.01574800
9.97820803	7.79527600	4.01574800
10.00881603	7.71653600	4.01574800
10.03942403	7.71653600	4.01574800
10.07003203	7.71653600	4.01574800
10.10064003	7.71653600	4.01574800
10.13124803	7.71653600	4.01574800
10.16185603	7.63779500	4.01574800
10.19246403	7.63779500	4.01574800
10.22307203	7.63779500	4.01574800
10.25368003	7.63779500	4.01574800
10.28428803	7.55905500	3.93700800
10.31489603	7.55905500	3.93700800
10.34550403	7.55905500	4.01574800
10.37611203	7.48031500	4.01574800
10.40672003	7.48031500	3.93700800
10.43732803	7.40157500	3.93700800
10.46793603	7.40157500	3.93700800
10.49854403	7.32283400	3.93700800
10.52915203	7.32283400	3.93700800
10.55976003	7.24409400	3.93700800
10.59036803	7.16535400	3.93700800
10.62097603	7.16535400	3.93700800
10.65158403	7.08661400	3.93700800
10.68219203	7.08661400	3.93700800
10.71280003	7.00787400	3.93700800
10.74340803	6.92913400	3.93700800
10.77401603	6.85039400	3.93700800
10.80462403	6.77165400	3.93700800
10.83523203	6.69291400	3.93700800
10.86584003	6.69291400	3.85826800
10.89644803	6.61417300	3.85826800
10.92705603	6.53543300	3.85826800
10.95766403	6.45669300	3.85826800
10.98827203	6.37795300	3.85826800
11.01888003	6.29921200	3.85826800
11.04948803	6.22047200	3.85826800
11.08009603	6.14173200	3.85826800
11.11070403	6.06299200	3.85826800
11.14131203	5.90551200	3.85826800
11.17192003	5.82677200	3.85826800
11.20252803	5.74803200	3.85826800
11.23313603	5.66929100	3.85826800
11.26374403	5.59055100	3.85826800
11.29435203	5.51181100	3.85826800
11.32496003	5.43307100	3.85826800
11.35556803	5.35433100	3.85826800
11.38617603	5.27559000	3.85826800
11.41678403	5.19685000	3.85826800
11.44739203	5.11811000	3.77952800
11.47800003	5.03937000	3.77952800
11.50860803	4.96063000	3.77952800
11.53921603	4.88189000	3.77952800
11.56982403	4.80315000	3.77952800
11.60043203	4.72441000	3.77952800
11.63104003	4.64566900	3.77952800
11.66164803	4.56692900	3.77952800
11.69225603	4.48818900	3.77952800
11.72286403	4.40944900	3.77952800
11.75347203	4.33070900	3.77952800
11.78408003	4.25196800	3.77952800
11.81468803	4.17322800	3.77952800
11.84529603	4.17322800	3.77952800
11.87590403	4.09448800	3.77952800
11.90651203	4.01574800	3.77952800
11.93712003	3.93700800	3.77952800
11.96772803	3.85826800	3.77952800
11.99833603	3.77952800	3.70078700
12.02894403	3.77952800	3.70078700
12.05955203	3.70078700	3.70078700
12.09016003	3.62204700	3.70078700
12.12076803	3.54330700	3.70078700
12.15137604	3.46456700	3.70078700
12.18198404	3.38582700	3.70078700
12.21259204	3.30708700	3.70078700
12.24320004	3.22834600	3.70078700
12.27380804	3.14960600	3.70078700
12.30441604	3.14960600	3.70078700
12.33502404	3.07086600	3.70078700
12.36563204	2.99212600	3.70078700
12.39624004	2.91338600	3.70078700
12.42684804	2.83464600	3.70078700
12.45745604	2.75590500	3.70078700
12.48806404	2.67716500	3.70078700
12.51867204	2.59842500	3.62204700
12.54928004	2.51968500	3.62204700
12.57988804	2.36220500	3.62204700
12.61049604	2.36220500	3.62204700
12.64110404	2.20472400	3.62204700
12.67171204	2.12598400	3.62204700
12.70232004	2.04724400	3.62204700
12.73292804	1.96850400	3.62204700
12.76353604	1.88976400	3.62204700
12.79414404	1.81102400	3.62204700
12.82475204	1.73228300	3.62204700
12.85536004	1.65354300	3.62204700
12.88596804	1.57480300	3.62204700
12.91657604	1.49606300	3.62204700
12.94718404	1.41732300	3.62204700
12.97779204	1.33858300	3.54330700
13.00840004	1.33858300	3.62204700
13.03900804	1.25984300	3.54330700
13.06961604	1.18110200	3.62204700
13.10022404	1.10236200	3.54330700
13.13083204	1.10236200	3.54330700
13.16144004	1.02362200	3.54330700
13.19204804	0.94488190	3.54330700
13.22265604	0.86614170	3.54330700
13.25326404	0.86614170	3.54330700
13.28387204	0.78740160	3.54330700
13.31448004	0.78740160	3.54330700
13.34508804	0.70866140	3.54330700
13.37569604	0.70866140	3.54330700
13.40630404	0.62992130	3.54330700
13.43691204	0.62992130	3.54330700
13.46752004	0.62992130	3.54330700
13.49812804	0.55118110	3.54330700
13.52873604	0.55118110	3.46456700
13.55934404	0.55118110	3.54330700
13.58995204	0.55118110	3.54330700
13.62056004	0.47244100	3.46456700
13.65116804	0.47244100	3.46456700
13.68177604	0.47244100	3.46456700
13.71238404	0.47244100	3.46456700
13.74299204	0.47244100	3.46456700
13.77360004	0.47244100	3.46456700
13.80420804	0.47244100	3.46456700
13.83481604	0.39370080	3.46456700
13.86542404	0.39370080	3.46456700
13.89603204	0.39370080	3.46456700
13.92664004	0.39370080	3.46456700
13.95724804	0.39370080	3.46456700
13.98785604	0.39370080	3.46456700
14.01846404	0.39370080	3.46456700
14.04907204	0.39370080	3.46456700
14.07968004	0.39370080	3.46456700
14.11028804	0.39370080	3.46456700
14.14089604	0.39370080	3.38582700
14.17150404	0.39370080	3.46456700
14.20211204	0.39370080	3.38582700
14.23272004	0.39370080	3.38582700
14.26332804	0.39370080	3.38582700
14.29393604	0.47244100	3.38582700
14.32454404	0.47244100	3.38582700
14.35515204	0.47244100	3.38582700
14.38576004	0.47244100	3.38582700
14.41636804	0.47244100	3.38582700
14.44697604	0.55118110	3.38582700
14.47758404	0.55118110	3.38582700
14.50819204	0.55118110	3.38582700
14.53880004	0.62992130	3.38582700
14.56940804	0.62992130	3.30708700
14.60001604	0.70866140	3.30708700
14.63062404	0.78740160	3.38582700
14.66123204	0.78740160	3.30708700
14.69184004	0.78740160	3.30708700
14.72244804	0.86614170	3.30708700
14.75305604	0.94488190	3.30708700
14.78366404	1.02362200	3.30708700
14.81427204	1.02362200	3.30708700
14.84488004	1.10236200	3.30708700
14.87548804	1.18110200	3.30708700
14.90609604	1.25984300	3.30708700
14.93670404	1.33858300	3.30708700
14.96731204	1.33858300	3.30708700
14.99792004	1.41732300	3.30708700
15.02852804	1.49606300	3.30708700
15.05913604	1.57480300	3.30708700
15.08974404	1.65354300	3.30708700
15.12035204	1.73228300	3.30708700
15.15096004	1.81102400	3.30708700
15.18156804	1.88976400	3.22834600
15.21217604	1.96850400	3.30708700
15.24278404	2.04724400	3.22834600
15.27339204	2.12598400	3.22834600
15.30400004	2.20472400	3.22834600
15.33460804	2.28346500	3.22834600
15.36521604	2.36220500	3.22834600
15.39582404	2.44094500	3.22834600
15.42643204	2.44094500	3.22834600
15.45704004	2.51968500	3.22834600
15.48764804	2.59842500	3.22834600
15.51825604	2.67716500	3.22834600
15.54886404	2.75590500	3.22834600
15.57947204	2.83464600	3.22834600
15.61008005	2.83464600	3.14960600
15.64068805	2.91338600	3.22834600
15.67129605	2.99212600	3.14960600
15.70190405	2.99212600	3.22834600
15.73251205	3.07086600	3.14960600
15.76312005	3.14960600	3.14960600
15.79372805	3.14960600	3.14960600
15.82433605	3.22834600	3.14960600
15.85494405	3.30708700	3.14960600
15.88555205	3.30708700	3.14960600
15.91616005	3.38582700	3.14960600
15.94676805	3.38582700	3.14960600
15.97737605	3.46456700	3.14960600
16.00798405	3.46456700	3.14960600
16.03859205	3.54330700	3.14960600
16.06920005	3.54330700	3.14960600
16.09980805	3.62204700	3.07086600
16.13041605	3.62204700	3.14960600
16.16102405	3.70078700	3.14960600
16.19163205	3.70078700	3.07086600
16.22224005	3.77952800	3.14960600
16.25284805	3.85826800	3.07086600
16.28345605	3.85826800	3.07086600
16.31406405	3.93700800	3.07086600
16.34467205	3.93700800	3.07086600
16.37528005	4.01574800	3.07086600
16.40588805	4.09448800	3.07086600
16.43649605	4.17322800	3.07086600
16.46710405	4.25196800	3.07086600
16.49771205	4.25196800	3.07086600
16.52832005	4.33070900	3.07086600
16.55892805	4.40944900	3.07086600
16.58953605	4.40944900	3.07086600
16.62014405	4.48818900	3.07086600
16.65075205	4.56692900	3.07086600
16.68136005	4.64566900	3.07086600
16.71196805	4.72441000	3.07086600
16.74257605	4.80315000	3.07086600
16.77318405	4.88189000	3.07086600
16.80379205	4.88189000	2.99212600
16.83440005	4.96063000	2.99212600
16.86500805	5.03937000	2.99212600
16.89561605	5.11811000	2.99212600
16.92622405	5.19685000	2.99212600
16.95683205	5.27559000	2.99212600
16.98744005	5.35433100	2.99212600
17.01804805	5.43307100	2.99212600
17.04865605	5.51181100	2.99212600
17.07926405	5.59055100	2.99212600
17.10987205	5.59055100	2.99212600
17.14048005	5.66929100	2.99212600
17.17108805	5.74803200	2.99212600
17.20169605	5.82677200	2.99212600
17.23230405	5.90551200	2.99212600
17.26291205	5.98425200	2.91338600
17.29352005	6.06299200	2.99212600
17.32412805	6.06299200	2.91338600
17.35473605	6.14173200	2.91338600
17.38534405	6.22047200	2.91338600
17.41595205	6.29921200	2.91338600
17.44656005	6.29921200	2.91338600
17.47716805	6.37795300	2.91338600
17.50777605	6.45669300	2.91338600
17.53838405	6.53543300	2.91338600
17.56899205	6.53543300	2.91338600
17.59960005	6.61417300	2.91338600
17.63020805	6.61417300	2.91338600
17.66081605	6.69291400	2.91338600
17.69142405	6.69291400	2.91338600
