Data from Subt2_15-46-20-465.txt Node
Date: Wed Apr 21 15:46:20 CEST 2021
User: au643642
Spectrometer: FLMS05507
Trigger mode: 0
Integration Time (sec): 2,300000E-2
Scans to average: 5
Electric dark correction enabled: true
Nonlinearity correction enabled: false
Boxcar width: 0
XAxis mode: Pixels
Number of Pixels in Spectrum: 2048
>>>>>Begin Spectral Data<<<<<
0	37,27
1	37,27
2	37,27
3	45,23
4	39,15
5	9,19
6	25,57
7	29,78
8	-80,69
9	29,78
10	-12,35
11	-39,03
12	17,61
13	8,25
14	90,64
15	37,74
16	-17,5
17	-12,35
18	-61,5
19	-68,99
20	43,83
21	-0,64
22	-77,41
23	-48,39
24	11,53
25	-4,39
26	0,76
27	141,19
28	49,44
29	-3,92
30	10,12
31	-25,92
32	33,53
33	32,12
34	12
35	-35,75
36	34,93
37	53,66
38	42,42
39	89,7
40	-1,11
41	9,19
42	28,85
43	21,36
44	82,21
45	26,51
46	17,61
47	52,25
48	-64,31
49	23,7
50	57,4
51	-38,56
52	-13,28
53	48,98
54	48,51
55	26,51
56	19,02
57	16,68
58	33,53
59	108,89
60	54,59
61	3,1
62	38,68
63	17,14
64	-6,73
65	9,19
66	34,46
67	-62,43
68	-36,69
69	68,17
70	85,96
71	20,89
72	62,08
73	35,87
74	-38,09
75	-29,2
76	67,23
77	34
78	57,87
79	11,06
80	60,21
81	-15,15
82	46,17
83	77,06
84	115,92
85	39,15
86	74,25
87	25,57
88	23,7
89	12,46
90	26,97
91	67,23
92	132,3
93	41,49
94	-48,39
95	46,17
96	12
97	89,23
98	62,08
99	38,21
100	1,7
101	-19,84
102	18,55
103	9,19
104	-69,92
105	36,34
106	26,97
107	-34,35
108	-19,84
109	46,17
110	1,23
111	72,85
112	19,02
113	30,25
114	-18,9
115	102,34
116	42,42
117	107,49
118	31,19
119	20,42
120	-5,79
121	40,08
122	5,91
123	108,89
124	18,55
125	61,61
126	57,4
127	20,42
128	26,04
129	27,91
130	58,81
131	15,27
132	2,63
133	-22,64
134	-26,39
135	-87,24
136	26,97
137	74,72
138	53,19
139	-0,18
140	70,04
141	4,04
142	82,21
143	17,14
144	100,47
145	40,55
146	7,31
147	-20,3
148	86,89
149	46,64
150	5,44
151	45,23
152	5,44
153	35,87
154	31,66
155	3,57
156	-34,35
157	21,36
158	112,17
159	111,23
160	35,4
161	69,1
162	-40,43
163	64,89
164	-10,47
165	36,8
166	71,91
167	-31,54
168	38,68
169	50,38
170	10,59
171	-34,82
172	38,68
173	-43,71
174	-5,79
175	107,96
176	6,85
177	4,51
178	-46,99
179	76,59
180	21,36
181	-10,01
182	79,4
183	11,06
184	36,34
185	57,4
186	112,17
187	40,55
188	-33,41
189	34
190	93,45
191	3,57
192	12,93
193	9,65
194	48,04
195	26,04
196	-10,47
197	40,08
198	5,44
199	59,74
200	43,36
201	22,76
202	98,13
203	-10,94
204	11,06
205	67,23
206	7,78
207	27,44
208	15,74
209	8,72
210	36,34
211	7,78
212	-12,81
213	38,68
214	114,51
215	42,42
216	48,04
217	-35,75
218	67,7
219	42,42
220	70,98
221	26,97
222	120,13
223	78
224	41,95
225	10,12
226	29,32
227	71,91
228	102,81
229	183,79
230	220,77
231	334,99
232	557,34
233	776,41
234	968,81
235	996,42
236	912,63
237	898,59
238	795,61
239	689,35
240	321,88
241	257,28
242	126,21
243	130,43
244	117,79
245	107,02
246	137,45
247	101,4
248	97,19
249	109,36
250	121,53
251	135,58
252	142,13
253	77,53
254	185,19
255	145,41
256	104,68
257	172,09
258	219,37
259	236,69
260	378,52
261	398,18
262	634,58
263	830,25
264	1196,77
265	1797,82
266	2330,06
267	3157,21
268	4184,23
269	5019,34
270	6088,49
271	7562,56
272	9624,58
273	11146,39
274	11460,96
275	11687,52
276	13842,69
277	17481,29
278	18780,28
279	15379,02
280	9244
281	5163,05
282	3595,36
283	2185,88
284	695,43
285	441,25
286	229,2
287	289,58
288	279,75
289	208,6
290	245,11
291	231,54
292	283,5
293	277,41
294	221,71
295	272,73
296	364,01
297	457,17
298	546,57
299	856,93
300	1000,64
301	1432,23
302	1842,76
303	2103,5
304	2126,44
305	2456,45
306	2642,76
307	2637,14
308	2453,64
309	2526,2
310	2881,02
311	3357,09
312	3786,34
313	4506,29
314	5222,96
315	6549,11
316	8129,44
317	10441,89
318	13300,15
319	16708,91
320	20883,49
321	27092,46
322	36260,81
323	48139,96
324	57285,84
325	58436,45
326	50065,29
327	29563,13
328	14242,45
329	6477,02
330	2664,29
331	1213,63
332	817,61
333	579,34
334	503,51
335	463,25
336	536,28
337	466,06
338	489,46
339	525,51
340	672,03
341	719,77
342	773,14
343	788,12
344	824,63
345	1053,53
346	1339,08
347	1584,37
348	1920,47
349	2284,66
350	2801,91
351	3481,61
352	4474,46
353	5493,06
354	5960,7
355	6397,91
356	7323,36
357	8525,46
358	10607,13
359	13632,98
360	17518,27
361	20881,62
362	21500,92
363	20157,45
364	18011,18
365	18467,59
366	20771,61
367	25402,59
368	32825,84
369	41967,03
370	48243,88
371	44262,16
372	32127,42
373	17589,89
374	8924,76
375	4331,22
376	2063,24
377	1253,88
378	940,72
379	802,63
380	725,39
381	700,58
382	874,72
383	996,42
384	1175,71
385	1399,46
386	1463,13
387	1532,41
388	1555,81
389	1845,1
390	2381,09
391	2848,26
392	3072,01
393	3090,74
394	2899,28
395	2977,45
396	3347,73
397	4119,17
398	5321,73
399	6668,01
400	7783,04
401	7630,44
402	6793,46
403	5972,4
404	5956,96
405	6425,53
406	7594,86
407	9272,56
408	11689,86
409	14863,16
410	16592,35
411	15432,38
412	11929,53
413	9019,78
414	7810,19
415	7510,14
416	8105,1
417	9373,2
418	11535,39
419	14711,5
420	18549,97
421	20465,94
422	18236,81
423	12587,23
424	7405,28
425	4419,69
426	2869,79
427	2034,22
428	1905,02
429	2136,73
430	2603,44
431	3179,68
432	3594,42
433	3968,9
434	4109,34
435	4217,94
436	4361,18
437	4652,34
438	4976,74
439	4987,51
440	4747,84
441	4328,41
442	3781,19
443	3233,51
444	2512,16
445	2148,44
446	2152,65
447	2084,31
448	2323,98
449	2899,28
450	3698,81
451	4519,87
452	5113,43
453	5035,25
454	4062,06
455	3239,59
456	2840,3
457	2548,2
458	2624,97
459	2749,49
460	3096,35
461	3713,79
462	4729,58
463	5786,1
464	6845,89
465	6819,68
466	5632,09
467	4094,83
468	2910,98
469	2311,34
470	2011,28
471	2013,15
472	2182,61
473	2419,47
474	2967,62
475	3635,61
476	4283,94
477	5261,82
478	5889,08
479	5510,38
480	4052,23
481	2704,55
482	1857,74
483	1412,57
484	1192,56
485	1234,69
486	1241,71
487	1236,1
488	1146,22
489	951,49
490	936,04
491	892,04
492	907,48
493	1041,83
494	1150,9
495	1494,02
496	1925,15
497	2074,48
498	2107,71
499	1880,21
500	1974,3
501	2028,6
502	2042,64
503	1748,2
504	1603,09
505	1558,15
506	1686,88
507	1927,96
508	2285,59
509	2809,87
510	3569,14
511	3649,19
512	3151,59
513	2364,23
514	1832,93
515	1459,38
516	1196,77
517	1132,18
518	1027,32
519	1068,51
520	1182,73
521	1276,82
522	1489,34
523	1813,74
524	2331,47
525	2782,72
526	2834,21
527	2618,88
528	1961,66
529	1379,8
530	1022,17
531	801,69
532	727,26
533	795,14
534	732,88
535	725,39
536	804,03
537	811,99
538	935,1
539	1007,66
540	1252,01
541	1575,47
542	1873,19
543	1839,95
544	1793,14
545	1327,38
546	874,72
547	622,88
548	369,63
549	349,97
550	402,4
551	386,95
552	401,93
553	450,14
554	451,08
555	382,27
556	573,26
557	667,35
558	712,75
559	714,62
560	799,35
561	686,54
562	511
563	465,12
564	343,88
565	312,52
566	371,97
567	388,35
568	345,29
569	435,16
570	511
571	490,87
572	474,95
573	521,76
574	747,39
575	821,82
576	923,4
577	852,72
578	741,77
579	557,81
580	630,83
581	633,64
582	572,79
583	413,63
584	480,57
585	445,46
586	447,33
587	434,23
588	415,04
589	503,04
590	493,21
591	436,57
592	508,19
593	580,75
594	653,77
595	734,28
596	670,15
597	564,83
598	409,89
599	322,35
600	328,9
601	299,88
602	290,05
603	340,14
604	317,2
605	273,2
606	327,97
607	388,35
608	278,82
609	297,07
610	389,76
611	439,38
612	459,51
613	496,95
614	402,86
615	465,59
616	493,21
617	412,23
618	258,69
619	300,35
620	250,26
621	222,18
622	204,86
623	225,92
624	212,81
625	301,29
626	269,92
627	339,67
628	332,18
629	378,99
630	358,39
631	370,57
632	309,24
633	265,24
634	258,69
635	248,39
636	209,54
637	315,8
638	243,24
639	227,32
640	260,09
641	181,45
642	275,07
643	331,24
644	272,26
645	267,58
646	333,12
647	399,59
648	449,21
649	450,61
650	543,76
651	524,57
652	400,52
653	393,03
654	390,69
655	444,06
656	466,53
657	335,93
658	281,16
659	334,99
660	290,52
661	232,01
662	257,75
663	206,73
664	176,77
665	200,17
666	302,22
667	333,12
668	376,18
669	350,9
670	510,06
671	443,12
672	442,65
673	523,64
674	542,36
675	458,57
676	436,1
677	393,5
678	468,4
679	314,86
680	364,95
681	355,12
682	436,57
683	356,99
684	354,18
685	458,1
686	468,87
687	474,02
688	528,79
689	491,34
690	462,31
691	482,91
692	514,74
693	581,68
694	525,98
695	650,03
696	574,66
697	527,85
698	546,11
699	607,43
700	685,6
701	646,28
702	638,79
703	667,35
704	628,96
705	684,67
706	757,22
707	753,48
708	874,72
709	806,84
710	799,82
711	825,57
712	784,84
713	679,52
714	749,73
715	723,05
716	661,73
717	592,92
718	567,64
719	588,7
720	559,68
721	582,15
722	551,72
723	553,13
724	634,11
725	686,54
726	684,67
727	697,3
728	687,94
729	790,93
730	746,92
731	711,35
732	859,74
733	848,5
734	810,12
735	896,25
736	956,64
737	903,27
738	849,91
739	848,5
740	734,75
741	629,9
742	683,73
743	715,56
744	670,62
745	685,13
746	552,66
747	662,66
748	592,92
749	625,68
750	666,88
751	595,72
752	702,92
753	747,86
754	687,47
755	796,07
756	741,77
757	772,2
758	609,77
759	627,56
760	692,15
761	688,41
762	628,02
763	745,99
764	648,62
765	715,56
766	745,52
767	747,39
768	644,88
769	789,52
770	619,13
771	728,2
772	723,99
773	567,17
774	720,24
775	734,28
776	791,86
777	771,73
778	766,12
779	870,04
780	957,57
781	877,99
782	920,59
783	876,12
784	881,27
785	804,5
786	863,48
787	804,5
788	856,93
789	910,29
790	872,84
791	828,37
792	798,42
793	780,63
794	804,97
795	841,01
796	920,59
797	893,91
798	919,19
799	810,59
800	851,78
801	806,37
802	816,67
803	790,46
804	889,23
805	770,33
806	782,03
807	821,82
808	892,5
809	836,8
810	886,42
811	778,75
812	847,1
813	816,67
814	849,44
815	827,91
816	766,58
817	768,92
818	773,61
819	665,47
820	668,75
821	711,82
822	641,13
823	751,14
824	831,65
825	777,35
826	772,67
827	734,28
828	704,79
829	756,29
830	654,71
831	628,49
832	672,96
833	631,3
834	659,86
835	705,26
836	709,01
837	634,11
838	541,42
839	657,05
840	659,86
841	640,2
842	562,49
843	552,19
844	490,4
845	580,28
846	655,17
847	623,81
848	530,66
849	586,83
850	612,58
851	653,77
852	605,56
853	629,43
854	640,2
855	559,68
856	577
857	574,19
858	607,43
859	615,39
860	632,71
861	638,79
862	755,82
863	743,65
864	914,51
865	977,23
866	1018,43
867	1097,07
868	1171,03
869	1182,73
870	1228,14
871	1126,09
872	1113,92
873	1063,83
874	1014,68
875	1143,88
876	1198,65
877	1324,57
878	1387,29
879	1358,74
880	1474,36
881	1483,72
882	1366,23
883	1281,97
884	1188,82
885	1159,33
886	1144,35
887	1255,76
888	1266,99
889	1386,36
890	1409,76
891	1441,13
892	1497,77
893	1472,49
894	1406,49
895	1271,67
896	1246,86
897	1228,14
898	1363,89
899	1377
900	1492,15
901	1679,39
902	1646,63
903	1701,86
904	1672,84
905	1742,59
906	1611,05
907	1479,04
908	1349,85
909	1256,69
910	1230,95
911	1332,53
912	1373,72
913	1473,43
914	1481,85
915	1522,11
916	1584,84
917	1637,73
918	1631,65
919	1501,04
920	1314,74
921	1229,07
922	1058,68
923	1149,5
924	1193,5
925	1492,15
926	1479,04
927	1567,52
928	1624,16
929	1670,03
930	1822,17
931	1893,32
932	1649,43
933	1563,77
934	1457,51
935	1441,59
936	1418,66
937	1483,26
938	1540,83
939	1483,26
940	1414,44
941	1408,36
942	1453,77
943	1334,87
944	1279,16
945	1162,13
946	1125,15
947	935,1
948	783,44
949	795,14
950	613,04
951	689,81
952	625,22
953	663,13
954	742,24
955	720,71
956	681,86
957	682,32
958	703,86
959	643,47
960	614,92
961	529,72
962	623,81
963	543,3
964	636,92
965	615,85
966	599,94
967	683,73
968	654,24
969	631,3
970	624,75
971	641,6
972	480,1
973	530,66
974	490,87
975	534,87
976	437,04
977	448,27
978	481,97
979	522,23
980	612,11
981	583,09
982	545,64
983	609,3
984	581,21
985	556,4
986	599,47
987	653,77
988	622,88
989	559,68
990	509,13
991	486,19
992	511,93
993	457,17
994	474,02
995	525,51
996	473,55
997	675,3
998	725,39
999	748,33
1000	826,03
1001	741,31
1002	878,93
1003	918,25
1004	908,89
1005	768,46
1006	657,98
1007	723,05
1008	646,28
1009	562,96
1010	528,79
1011	587,3
1012	695,9
1013	776,88
1014	930,42
1015	1032,94
1016	1010
1017	1102,22
1018	1096,6
1019	1173,84
1020	1221,12
1021	1150,9
1022	1144,81
1023	1083,96
1024	1035,75
1025	814,8
1026	785,31
1027	800,29
1028	859,27
1029	929,95
1030	1013,28
1031	1031,06
1032	1211,75
1033	1321,76
1034	1432,23
1035	1452,83
1036	1463,6
1037	1525,85
1038	1484,66
1039	1576,88
1040	1622,28
1041	1438,79
1042	1329,25
1043	1127,96
1044	1032,47
1045	925,27
1046	951,95
1047	986,13
1048	1088,64
1049	1222,05
1050	1442,06
1051	1645,22
1052	1720,12
1053	1745,4
1054	1793,61
1055	1815,61
1056	1926,09
1057	2017,83
1058	2045,92
1059	1773,95
1060	1547,39
1061	1299,29
1062	1148,56
1063	945,4
1064	901,87
1065	836,8
1066	856,46
1067	955,23
1068	1228,14
1069	1466,4
1070	1673,31
1071	1697,65
1072	1794,55
1073	1880,21
1074	1921,87
1075	2055,75
1076	2015,03
1077	2017,37
1078	1853,53
1079	1697,65
1080	1415,38
1081	1161,2
1082	976,76
1083	855,99
1084	883,61
1085	922,93
1086	991,74
1087	1050,26
1088	1253,42
1089	1482,79
1090	1810,46
1091	1945,75
1092	1956,51
1093	1804,38
1094	1783,78
1095	1699,05
1096	1687,35
1097	1624,16
1098	1425,68
1099	1186,94
1100	953,83
1101	776,88
1102	666,41
1103	592,92
1104	548,45
1105	554,53
1106	599,47
1107	701,52
1108	772,2
1109	973,49
1110	1131,71
1111	1095,66
1112	1080,22
1113	918,72
1114	939,78
1115	939,32
1116	931,36
1117	830,25
1118	866,76
1119	727,73
1120	686,07
1121	533
1122	481,97
1123	399,59
1124	322,82
1125	349,5
1126	301,29
1127	363,54
1128	317,2
1129	261,5
1130	395,37
1131	391,63
1132	369,16
1133	386,95
1134	345,29
1135	357,93
1136	420,65
1137	433,76
1138	476,83
1139	519,42
1140	441,25
1141	395,37
1142	337,8
1143	270,86
1144	162,26
1145	201,11
1146	221,24
1147	197,83
1148	195,49
1149	114,51
1150	166,94
1151	160,39
1152	166,47
1153	191,28
1154	263,84
1155	201,11
1156	286,77
1157	353,71
1158	411,76
1159	2037,49
1160	6969,94
1161	10815,44
1162	11913,15
1163	8627,98
1164	6384,81
1165	4670,6
1166	3291,55
1167	2020,17
1168	1053,07
1169	539,08
1170	326,56
1171	199,24
1172	188,94
1173	255,88
1174	187,54
1175	346,22
1176	254,01
1177	334,05
1178	387,42
1179	298,48
1180	310,65
1181	303,16
1182	245,11
1183	259,62
1184	1539,43
1185	4498,33
1186	7093,99
1187	7893,05
1188	5786,56
1189	4170,66
1190	3290,62
1191	2309,47
1192	1359,21
1193	701,05
1194	373,37
1195	295,2
1196	282,09
1197	286,31
1198	308,78
1199	337,33
1200	328,44
1201	330,78
1202	307,84
1203	329,37
1204	534,4
1205	978,64
1206	1267,93
1207	1277,76
1208	947,27
1209	777,35
1210	635,51
1211	505,85
1212	364,01
1213	283,5
1214	233,88
1215	197,37
1216	141,19
1217	181,92
1218	155,7
1219	261,03
1220	194,09
1221	298,48
1222	216,09
1223	361,67
1224	346,69
1225	362,14
1226	462,78
1227	466,53
1228	435,63
1229	470,74
1230	457,17
1231	562,49
1232	516,61
1233	528,32
1234	707,13
1235	1269,33
1236	2220,06
1237	3026,61
1238	2871,19
1239	2162,95
1240	1674,24
1241	1377
1242	988,47
1243	637,85
1244	473,55
1245	382,74
1246	370,1
1247	401,46
1248	370,57
1249	439,85
1250	386,01
1251	482,44
1252	554,06
1253	541,42
1254	628,96
1255	703,86
1256	679,98
1257	779,69
1258	821,82
1259	797,95
1260	971,61
1261	1054
1262	2050,6
1263	6491,53
1264	10699,35
1265	12701,44
1266	10399,29
1267	7709,55
1268	5853,97
1269	4127,59
1270	2723,27
1271	1401,81
1272	887,82
1273	460,91
1274	424,87
1275	397,72
1276	400,06
1277	446,4
1278	498,83
1279	587,77
1280	599
1281	698,24
1282	785,31
1283	804,97
1284	912,63
1285	996,89
1286	1035,75
1287	980,51
1288	948,21
1289	1048,85
1290	996,89
1291	1322,7
1292	5764,1
1293	20104,56
1294	32702,26
1295	41633,74
1296	42112,15
1297	39996,3
1298	35283,87
1299	25386,21
1300	16797,38
1301	10921,23
1302	6569,24
1303	3590,21
1304	1845,1
1305	1076,47
1306	654,24
1307	536,28
1308	466,53
1309	416,91
1310	443,59
1311	437,97
1312	585,43
1313	600,87
1314	647,22
1315	608,83
1316	667,81
1317	710,88
1318	730,07
1319	687,01
1320	742,71
1321	783,9
1322	796,07
1323	841,01
1324	1354,53
1325	8143,95
1326	25104,88
1327	38025,1
1328	41435,73
1329	32054,87
1330	22960,01
1331	16818,45
1332	11512,45
1333	6750,4
1334	3666,04
1335	1897,53
1336	1032,94
1337	707,6
1338	488,06
1339	406,14
1340	454,36
1341	466,53
1342	496,02
1343	583,55
1344	573,26
1345	756,29
1346	674,37
1347	1718,25
1348	6183,52
1349	11122,99
1350	13779,03
1351	11922,05
1352	8683,68
1353	6374,98
1354	4692,13
1355	3217,59
1356	2191,03
1357	1372,31
1358	836,8
1359	667,35
1360	481,51
1361	370,1
1362	336,39
1363	260,09
1364	175,83
1365	114,98
1366	92,51
1367	136,51
1368	100
1369	110,3
1370	0,76
1371	84,55
1372	77,06
1373	136,04
1374	31,19
1375	49,91
1376	49,91
1377	92,98
1378	129,96
1379	71,91
1380	123,4
1381	136,04
1382	85,49
1383	103,28
1384	92,98
1385	147,28
1386	116,38
1387	169,75
1388	158,04
1389	167,41
1390	131,83
1391	183,32
1392	128,09
1393	124,81
1394	132,3
1395	125,75
1396	100
1397	60,68
1398	88,76
1399	96,25
1400	151,96
1401	87,36
1402	104,21
1403	166,94
1404	1515,09
1405	4801,2
1406	7756,36
1407	8621,42
1408	6732,14
1409	4650
1410	3208,7
1411	2241,59
1412	1502,92
1413	1030,6
1414	570,92
1415	289,58
1416	232,47
1417	205,32
1418	340,14
1419	1679,86
1420	4381,78
1421	7890,24
1422	12281,55
1423	14271,94
1424	13625,02
1425	9895,61
1426	6845,42
1427	4543,27
1428	3175
1429	2073,07
1430	1356,87
1431	817,14
1432	500,23
1433	159,45
1434	104,21
1435	228,73
1436	146,34
1437	114,98
1438	104,21
1439	138,85
1440	109,36
1441	180,51
1442	257,28
1443	455,29
1444	3007,88
1445	7082,29
1446	10958,68
1447	17923,18
1448	24946,66
1449	29583,73
1450	27386,43
1451	18698,36
1452	11630,88
1453	7757,76
1454	5269,77
1455	3638,89
1456	2326,79
1457	1288,99
1458	674,83
1459	439,38
1460	176,77
1461	213,28
1462	105,62
1463	112,64
1464	64,89
1465	81,74
1466	88,76
1467	118,72
1468	48,51
1469	110,77
1470	66,76
1471	144,94
1472	52,25
1473	71,91
1474	105,62
1475	70,04
1476	123,87
1477	99,53
1478	129,02
1479	66,3
1480	6,38
1481	57,87
1482	129,02
1483	100,94
1484	117,32
1485	1150,9
1486	3619,7
1487	5416,29
1488	5806,69
1489	4304,07
1490	2580,5
1491	1782,84
1492	1266,05
1493	958,51
1494	628,49
1495	474,95
1496	277,88
1497	186,13
1498	211,88
1499	158,51
1500	47,57
1501	114,51
1502	37,74
1503	70,04
1504	150,55
1505	63,49
1506	66,76
1507	53,66
1508	13,4
1509	9,19
1510	22,29
1511	29,78
1512	123,4
1513	46,64
1514	27,91
1515	19,95
1516	86,89
1517	5,44
1518	37,27
1519	111,7
1520	72,85
1521	182,85
1522	1257,16
1523	4507,7
1524	7121,61
1525	7831,26
1526	6621,2
1527	9023,53
1528	12159,84
1529	13486,46
1530	10733,99
1531	6540,69
1532	4192,66
1533	2980,26
1534	2166,22
1535	1675,65
1536	1165,41
1537	683,73
1538	487,59
1539	216,09
1540	104,21
1541	96,72
1542	86,89
1543	95,79
1544	78,93
1545	118,72
1546	110,77
1547	26,04
1548	71,44
1549	100,47
1550	75,19
1551	359,33
1552	1744,93
1553	3136,14
1554	3818,64
1555	3259,72
1556	1975,7
1557	1349,38
1558	984,25
1559	779,22
1560	695,43
1561	424,87
1562	246,05
1563	243,71
1564	209,54
1565	88,76
1566	70,98
1567	148,68
1568	63,49
1569	26,51
1570	53,66
1571	41,02
1572	-51,2
1573	-13,75
1574	41,49
1575	34
1576	116,85
1577	96,25
1578	71,44
1579	43,36
1580	52,72
1581	174,9
1582	113,57
1583	-32,47
1584	78
1585	57,4
1586	140,26
1587	73,79
1588	48,04
1589	56,93
1590	406,14
1591	569,51
1592	738,97
1593	699,18
1594	508,19
1595	538,15
1596	508,66
1597	416,44
1598	348,56
1599	275,54
1600	310,65
1601	264,3
1602	211,88
1603	248,39
1604	210,47
1605	187,07
1606	228,73
1607	87,83
1608	166
1609	123,87
1610	39,15
1611	128,09
1612	100,94
1613	77,53
1614	60,21
1615	86,89
1616	46,17
1617	74,25
1618	29,32
1619	85,96
1620	27,44
1621	40,08
1622	34,46
1623	41,95
1624	55,06
1625	57,4
1626	74,25
1627	8,72
1628	85,02
1629	52,25
1630	95,79
1631	65,36
1632	100
1633	88,3
1634	156,64
1635	121,53
1636	164,13
1637	188,94
1638	231,54
1639	293,8
1640	201,58
1641	220,3
1642	239,5
1643	210
1644	180,51
1645	188,47
1646	244,18
1647	286,77
1648	221,24
1649	165,07
1650	371,97
1651	218,43
1652	262,9
1653	199,24
1654	235,75
1655	279,75
1656	259,62
1657	179,58
1658	217,96
1659	156,64
1660	193,15
1661	63,96
1662	65,83
1663	133,7
1664	32,59
1665	57,87
1666	78,93
1667	28,38
1668	4,04
1669	59,27
1670	32,59
1671	23,7
1672	84,08
1673	-62,9
1674	42,42
1675	49,91
1676	60,21
1677	21,36
1678	-11,88
1679	-14,22
1680	88,76
1681	56,93
1682	78
1683	16,21
1684	60,68
1685	58,34
1686	68,64
1687	24,63
1688	18,08
1689	16,21
1690	5,91
1691	-2,05
1692	59,27
1693	-19,84
1694	23,7
1695	16,68
1696	6,38
1697	34,93
1698	74,25
1699	46,17
1700	28,85
1701	13,4
1702	6,38
1703	34
1704	25,57
1705	124,81
1706	7,31
1707	54,12
1708	40,08
1709	63,02
1710	521,3
1711	1831,06
1712	3377,69
1713	4000,74
1714	3791,49
1715	2837,02
1716	2082,43
1717	1665,82
1718	1421
1719	1164,48
1720	938,38
1721	852,25
1722	546,11
1723	358,39
1724	161,32
1725	147,28
1726	69,1
1727	21,83
1728	53,66
1729	0,29
1730	150,09
1731	43,36
1732	13,87
1733	10,12
1734	64,89
1735	74,25
1736	92,51
1737	97,66
1738	283,5
1739	579,81
1740	857,86
1741	908,42
1742	695,43
1743	560,15
1744	474,02
1745	397,25
1746	275,07
1747	286,31
1748	208,6
1749	118,72
1750	151,49
1751	78
1752	83,15
1753	59,74
1754	33,06
1755	44,29
1756	105,62
1757	24,63
1758	68,17
1759	55,06
1760	-56,82
1761	-17,5
1762	-12,35
1763	64,89
1764	-24,05
1765	47,57
1766	62,55
1767	-35,28
1768	20,89
1769	34
1770	20,89
1771	52,25
1772	78,47
1773	60,21
1774	38,21
1775	46,64
1776	6,38
1777	88,3
1778	66,3
1779	46,64
1780	2,16
1781	40,08
1782	-3,92
1783	-36,22
1784	61,61
1785	60,68
1786	63,49
1787	-22,64
1788	-59,63
1789	-2,05
1790	-40,9
1791	-25,92
1792	23,23
1793	-0,64
1794	24,63
1795	5,44
1796	-9,54
1797	-1,11
1798	-23,11
1799	-74,6
1800	-14,22
1801	-14,22
1802	72,85
1803	11,06
1804	-5,79
1805	21,36
1806	3,57
1807	-59,16
1808	17,14
1809	8,25
1810	70,51
1811	-5,79
1812	30,25
1813	25,1
1814	37,27
1815	24,17
1816	38,21
1817	-50,73
1818	-12,81
1819	22,76
1820	-17,5
1821	36,8
1822	-55,41
1823	-25,92
1824	39,61
1825	56
1826	-25,45
1827	61,61
1828	15,74
1829	35,4
1830	-32,47
1831	-4,86
1832	50,85
1833	23,7
1834	16,21
1835	35,87
1836	9,19
1837	12,46
1838	-46,99
1839	60,68
1840	29,32
1841	41,49
1842	-28,73
1843	15,74
1844	-28,73
1845	-11,41
1846	31,66
1847	-3,92
1848	5,91
1849	17,14
1850	-2,05
1851	41,02
1852	-36,22
1853	66,3
1854	-9,07
1855	19,48
1856	63,02
1857	82,21
1858	149,15
1859	256,35
1860	224,98
1861	350,9
1862	385,54
1863	330,78
1864	239,96
1865	202,51
1866	266,65
1867	120,13
1868	88,76
1869	18,08
1870	48,04
1871	67,7
1872	6,38
1873	-10,94
1874	-8,6
1875	-37,62
1876	-3,45
1877	-8,13
1878	-30,6
1879	11,53
1880	86,42
1881	110,77
1882	91,11
1883	4,04
1884	20,42
1885	56,93
1886	12,46
1887	-11,88
1888	58,34
1889	12
1890	-6,26
1891	39,61
1892	9,19
1893	62,08
1894	41,49
1895	47,57
1896	41,49
1897	81,28
1898	66,3
1899	65,83
1900	-24,05
1901	7,31
1902	36,34
1903	-27,33
1904	51,32
1905	22,29
1906	63,02
1907	-7,2
1908	20,42
1909	-38,09
1910	-24,99
1911	13,4
1912	-17,96
1913	70,98
1914	-19,84
1915	40,08
1916	-30,13
1917	36,34
1918	86,89
1919	-21,24
1920	62,55
1921	-114,39
1922	-10,94
1923	-7,67
1924	-16,56
1925	-22,18
1926	-43,24
1927	-32,01
1928	-23,11
1929	-25,92
1930	18,55
1931	-25,45
1932	55,06
1933	-8,13
1934	42,42
1935	-12,81
1936	75,19
1937	-27,33
1938	35,4
1939	-15,15
1940	-43,24
1941	64,89
1942	67,23
1943	69,1
1944	-47,92
1945	41,02
1946	-2,52
1947	84,08
1948	40,08
1949	19,95
1950	12
1951	75,19
1952	65,36
1953	-6,26
1954	7,78
1955	-10,01
1956	-37,16
1957	12,46
1958	-3,92
1959	19,02
1960	10,59
1961	24,63
1962	12,93
1963	-35,28
1964	66,3
1965	30,72
1966	-10,94
1967	-46,99
1968	69,57
1969	-24,52
1970	22,29
1971	-21,71
1972	40,08
1973	39,61
1974	-13,75
1975	19,95
1976	11,06
1977	74,25
1978	34,46
1979	-40,43
1980	-4,39
1981	-4,86
1982	-8,6
1983	23,7
1984	14,34
1985	90,64
1986	-66,18
1987	52,25
1988	47,57
1989	-85,37
1990	14,34
1991	-81,16
1992	-1,11
1993	46,17
1994	3,57
1995	69,57
1996	39,61
1997	63,02
1998	-8,13
1999	-2,98
2000	-2,52
2001	-69,46
2002	5,44
2003	-17,03
2004	17,61
2005	5,44
2006	4,97
2007	44,76
2008	4,51
2009	34,93
2010	-28,26
2011	87,36
2012	-58,69
2013	42,42
2014	-35,75
2015	57,87
2016	-9,07
2017	45,23
2018	95,32
2019	67,7
2020	-14,22
2021	22,76
2022	-13,28
2023	-5,32
2024	76,59
2025	25,57
2026	68,17
2027	-55,41
2028	54,59
2029	11,06
2030	12
2031	3,57
2032	-2,98
2033	11,53
2034	4,51
2035	-4,39
2036	44,29
2037	54,59
2038	5,44
2039	26,51
2040	-42,31
2041	-24,52
2042	17,14
2043	42,42
2044	16,21
2045	12,46
2046	12,46
2047	12,46
