Data from Subt2_15-49-04-683.txt Node
Date: Wed Apr 21 15:49:04 CEST 2021
User: au643642
Spectrometer: FLMS05507
Trigger mode: 0
Integration Time (sec): 2,300000E-2
Scans to average: 5
Electric dark correction enabled: true
Nonlinearity correction enabled: false
Boxcar width: 0
XAxis mode: Pixels
Number of Pixels in Spectrum: 2048
>>>>>Begin Spectral Data<<<<<
0	51,76
1	51,76
2	51,76
3	80,31
4	81,25
5	-11,44
6	65,33
7	-7,23
8	-53,1
9	32,09
10	-35,31
11	-28,29
12	-3,48
13	33,97
14	95,76
15	-7,23
16	-20,33
17	0,73
18	-30,63
19	-56,85
20	26,01
21	5,41
22	-70,89
23	-46,55
24	57,37
25	8,22
26	11,97
27	105,12
28	23,67
29	29,75
30	-28,29
31	-32,97
32	38,65
33	6,35
34	28,35
35	-16,59
36	-4,89
37	14,31
38	34,9
39	57,84
40	-29,7
41	-54,97
42	30,22
43	15,71
44	55,5
45	15,71
46	36,31
47	70,01
48	-70,42
49	44,27
50	83,12
51	-30,63
52	-24,55
53	0,73
54	49,41
55	5,88
56	-7,69
57	-5,35
58	9,63
59	90,14
60	62,05
61	-25,01
62	18,99
63	-7,23
64	-37,65
65	-5,82
66	16,18
67	-105,06
68	-56,85
69	52,22
70	75,16
71	15,71
72	48,01
73	6,35
74	-16,12
75	-53,1
76	78,44
77	49,41
78	60,18
79	-13,31
80	7,75
81	-10,5
82	69,54
83	55,5
84	90,14
85	-19,4
86	55,97
87	0,73
88	-7,23
89	30,22
90	11,03
91	48,48
92	99,03
93	12,9
94	-62,93
95	78,44
96	-25,95
97	31,16
98	79,84
99	-0,67
100	-25,95
101	-38,12
102	11,03
103	-17,06
104	-72,29
105	-1,61
106	-12,38
107	-28,76
108	-36,72
109	51,29
110	-13,78
111	64,39
112	-18,46
113	14,77
114	-37,65
115	57,37
116	7,75
117	103,25
118	26,95
119	8,22
120	-2,08
121	36,78
122	8,69
123	88,27
124	8,22
125	83,12
126	68,14
127	11,97
128	-5,35
129	21,33
130	68,14
131	14,31
132	-11,91
133	-12,84
134	-10,5
135	-64,8
136	-13,78
137	4,94
138	8,22
139	10,09
140	43,8
141	-12,38
142	81,25
143	-40,46
144	52,22
145	45,67
146	18,52
147	-33,91
148	54,1
149	12,43
150	5,41
151	32,09
152	-47,48
153	-2,55
154	17,58
155	-3,01
156	-5,82
157	19,46
158	65,8
159	67,2
160	33,97
161	82,18
162	-37,65
163	44,27
164	-34,38
165	5,88
166	53,63
167	-7,23
168	21,8
169	32,09
170	11,5
171	-74,17
172	35,84
173	-47,02
174	-14,72
175	57,84
176	-16,12
177	-44,21
178	-59,19
179	39,58
180	-32,97
181	-8,16
182	47,54
183	-6,76
184	27,41
185	13,37
186	46,61
187	-17,99
188	-29,7
189	28,35
190	85,46
191	0,26
192	31,16
193	-18,93
194	32,09
195	-3,95
196	-1,14
197	-14,25
198	-19,4
199	61,59
200	-4,42
201	-1,14
202	77,97
203	-55,44
204	-9,57
205	60,18
206	2,14
207	17,58
208	-39,06
209	-18,93
210	-20,33
211	-34,84
212	-49,82
213	-10,97
214	77,97
215	19,46
216	17,12
217	-37,65
218	13,37
219	26,01
220	27,88
221	11,5
222	66,27
223	12,9
224	-9,57
225	-46,08
226	-25,01
227	-2,55
228	28,82
229	32,09
230	48,01
231	13,84
232	42,86
233	40,05
234	60,18
235	52,69
236	18,52
237	21,8
238	4,01
239	50,35
240	-50,76
241	13,84
242	-21,27
243	23,67
244	33,03
245	18,99
246	49,41
247	-14,72
248	46,61
249	54,1
250	17,12
251	-6,29
252	33,97
253	-12,84
254	11,03
255	15,71
256	-40,46
257	23,2
258	48,01
259	35,84
260	82,65
261	-71,83
262	30,69
263	-38,59
264	-35,78
265	65,33
266	-3,95
267	-12,84
268	54,1
269	-29,7
270	-32,97
271	-25,95
272	-62,46
273	44,73
274	56,9
275	16,18
276	-3,95
277	-13,31
278	46,61
279	-25,01
280	22,26
281	18,52
282	-9,57
283	-16,59
284	-39,53
285	46,61
286	-33,91
287	-0,67
288	-17,52
289	-45,14
290	6,82
291	38,18
292	18,52
293	51,29
294	0,26
295	30,22
296	4,48
297	16,18
298	15,24
299	112,61
300	-38,59
301	-32,04
302	18,99
303	100,44
304	-33,91
305	-24,55
306	-2,55
307	28,35
308	8,22
309	-6,76
310	25,07
311	-13,78
312	-62,46
313	22,26
314	-9,1
315	72,82
316	-5,82
317	-21,74
318	-13,78
319	14,31
320	44,27
321	14,77
322	-15,18
323	-15,18
324	14,31
325	21,33
326	24,6
327	29,75
328	109,8
329	34,44
330	15,24
331	-16,12
332	100,91
333	-34,84
334	-47,02
335	-16,59
336	52,69
337	-32,97
338	-30,63
339	-34,84
340	-3,95
341	2,6
342	11,97
343	5,41
344	4,48
345	34,44
346	36,31
347	3,07
348	-0,2
349	-47,95
350	19,46
351	6,35
352	-7,69
353	82,18
354	-22,21
355	-94,76
356	44,27
357	-64,8
358	2,6
359	27,41
360	26,48
361	43,8
362	-10,97
363	4,48
364	117,29
365	41,46
366	-56,85
367	-10,04
368	-22,21
369	20,39
370	15,24
371	-2,55
372	14,77
373	49,88
374	12,43
375	-16,59
376	30,69
377	93,88
378	27,88
379	44,73
380	18,05
381	-28,76
382	23,2
383	25,54
384	-4,42
385	25,07
386	11,97
387	86,4
388	-8,63
389	19,92
390	0,26
391	-2,08
392	-13,78
393	-21,27
394	-3,48
395	21,8
396	101,37
397	27,88
398	15,71
399	-35,31
400	40,99
401	47,07
402	0,26
403	55,97
404	-25,95
405	90,14
406	4,94
407	84,52
408	-24,55
409	20,86
410	-33,44
411	26,95
412	-0,67
413	54,56
414	92,01
415	25,54
416	55,97
417	25,54
418	-39,99
419	24,14
420	18,52
421	5,88
422	85,46
423	25,07
424	45,2
425	-15,65
426	0,26
427	44,27
428	60,65
429	-25,95
430	-29,23
431	33,03
432	-53,1
433	-24,08
434	20,86
435	87,33
436	67,2
437	62,99
438	9,16
439	-0,67
440	0,26
441	6,82
442	-44,21
443	77,03
444	-32,04
445	33,97
446	21,8
447	-30,63
448	-61,99
449	43,33
450	62,52
451	42,39
452	-7,69
453	41,92
454	41,46
455	33,5
456	48,01
457	-15,65
458	-11,44
459	23,67
460	-51,7
461	-52,63
462	74,22
463	13,84
464	75,63
465	33,03
466	54,1
467	110,27
468	90,14
469	-42,33
470	6,35
471	-13,78
472	43,8
473	24,14
474	-12,38
475	0,26
476	22,73
477	-12,84
478	33,5
479	112,61
480	62,05
481	53,63
482	110,27
483	105,12
484	114,48
485	131,33
486	39,58
487	58,31
488	87,33
489	74,22
490	116,35
491	85,46
492	96,69
493	107,93
494	64,86
495	118,23
496	164,57
497	134,61
498	55,97
499	133,67
500	94,35
501	72,35
502	143,5
503	44,73
504	144,91
505	71,42
506	92,01
507	136,48
508	111,67
509	87,33
510	133,21
511	74,22
512	146,31
513	145,38
514	71,42
515	84,52
516	119,16
517	110,74
518	38,18
519	89,67
520	117,76
521	114,48
522	123,84
523	51,29
524	100,91
525	79,84
526	106,52
527	109,8
528	82,18
529	62,99
530	25,54
531	50,82
532	23,2
533	118,23
534	53,63
535	31,16
536	68,61
537	28,35
538	103,25
539	-6,29
540	73,76
541	61,59
542	84,99
543	41,92
544	60,65
545	-3,48
546	-179,02
547	-231,92
548	-237,54
549	-126,59
550	-16,12
551	41,92
552	41,46
553	50,35
554	2,6
555	-9,1
556	62,05
557	54,1
558	14,31
559	-6,29
560	51,76
561	60,18
562	-30,16
563	47,54
564	11,03
565	-3,48
566	11,5
567	5,41
568	-7,23
569	17,58
570	47,07
571	20,86
572	-71,36
573	-26,42
574	84,99
575	-17,52
576	40,52
577	2,14
578	-17,99
579	-45,61
580	-40,93
581	1,2
582	-30,16
583	-96,17
584	-16,12
585	-56,38
586	-74,17
587	-39,53
588	-58,25
589	3,07
590	8,69
591	-66,68
592	-102,25
593	-82,12
594	-94,29
595	-58,25
596	-68,55
597	-46,08
598	-76,04
599	-80,72
600	-35,78
601	-94,29
602	-85,87
603	-22,67
604	-25,48
605	-52,16
606	7,28
607	4,94
608	-75,1
609	-96,17
610	-71,83
611	-32,04
612	-42,33
613	-38,12
614	-106
615	-54,04
616	-74,17
617	-102,72
618	-197,75
619	-38,59
620	-77,44
621	-108,34
622	-60,59
623	-49,82
624	-68,55
625	6,82
626	-118,17
627	-4,42
628	-105,53
629	-51,7
630	-79,78
631	-40,46
632	-23,14
633	-50,29
634	-25,48
635	-55,91
636	-75,57
637	-27,36
638	-65,74
639	-85,4
640	-97,57
641	-108,34
642	-35,31
643	47,54
644	-29,23
645	-57,31
646	-52,63
647	-6,29
648	-45,61
649	-59,19
650	-45,61
651	-52,16
652	-168,72
653	-119,1
654	-47,02
655	-27,36
656	35,84
657	-38,12
658	-113,02
659	-43,74
660	-8,63
661	-115,36
662	-79,31
663	-135,02
664	-210,85
665	-218,81
666	-153,74
667	-188,38
668	-128,93
669	-180,89
670	-34,84
671	-89,61
672	-120,51
673	-48,42
674	-90,55
675	-135,96
676	-45,14
677	-22,21
678	78,44
679	-62,93
680	32,56
681	-36,25
682	86,86
683	-2,08
684	15,24
685	65,8
686	99,5
687	63,93
688	80,78
689	82,65
690	73,29
691	69,54
692	103,25
693	152,87
694	102,78
695	217,93
696	133,21
697	80,31
698	127,12
699	161,29
700	191,25
701	145,38
702	134,61
703	203,89
704	121,97
705	158,48
706	223,08
707	175,8
708	213,25
709	202,49
710	159,42
711	196,87
712	222,15
713	139,76
714	208,1
715	255,85
716	238,53
717	208,57
718	216,53
719	297,04
720	165,04
721	240,87
722	193,59
723	242,27
724	242,27
725	249,76
726	230,57
727	244,15
728	180,48
729	250,7
730	240,4
731	193,12
732	231,98
733	285,34
734	227,76
735	286,74
736	312,96
737	266,15
738	246,96
739	260,06
740	213,72
741	179,55
742	247,89
743	313,9
744	314,36
745	283,47
746	186,1
747	314,83
748	246,96
749	285,81
750	289,55
751	205,76
752	293,3
753	295,64
754	249,3
755	345,73
756	274,57
757	303,13
758	226,36
759	206,23
760	331,22
761	324,66
762	227,76
763	330,75
764	261,47
765	295,17
766	299,85
767	322,32
768	251,64
769	359,3
770	245,55
771	319,04
772	271,77
773	186,57
774	313,9
775	301,26
776	347,13
777	272,7
778	268,49
779	287,21
780	370,54
781	294,23
782	317,64
783	311,09
784	314,83
785	265,68
786	308,75
787	235,25
788	320,45
789	287,68
790	291,89
791	249,76
792	197,8
793	219,34
794	220,74
795	273,64
796	309,68
797	313,43
798	338,7
799	234,32
800	272,7
801	269,89
802	231,98
803	230,1
804	300,32
805	168,31
806	184,7
807	290,02
808	294,7
809	234,32
810	278,79
811	221,68
812	306,87
813	259,13
814	316,7
815	301,26
816	254,91
817	296,11
818	277,85
819	275,51
820	273,17
821	309,68
822	247,89
823	311,55
824	343,39
825	283,47
826	300,32
827	318,58
828	256,32
829	334,49
830	296,11
831	253,04
832	317,64
833	267,08
834	266,62
835	301,72
836	307,81
837	269,89
838	183,29
839	313,9
840	318,58
841	330,75
842	230,1
843	254,91
844	254,45
845	287,68
846	316,7
847	316,7
848	224,02
849	268,49
850	317,64
851	289,09
852	232,44
853	261,94
854	268,96
855	235,25
856	232,91
857	209,98
858	301,26
859	320,92
860	229,17
861	278,79
862	317,64
863	217
864	290,02
865	224,95
866	164,57
867	273,17
868	310,15
869	250,7
870	207,17
871	269,42
872	254,91
873	297,51
874	207,63
875	199,21
876	161,76
877	264,28
878	253,98
879	239
880	285,34
881	203,42
882	240,4
883	198,74
884	205,76
885	256,79
886	220,27
887	242,74
888	150,99
889	201,55
890	242,74
891	204,36
892	192,66
893	219,81
894	178,61
895	155,21
896	186,57
897	230,1
898	213,72
899	218,87
900	194,53
901	282,53
902	188,91
903	177,21
904	185,17
905	260,06
906	220,74
907	166,44
908	222,15
909	243,21
910	246,49
911	272,7
912	223,08
913	217,47
914	236,66
915	180,48
916	232,91
917	225,89
918	233,85
919	231,51
920	260,06
921	234,78
922	175,34
923	243,21
924	194,06
925	334,02
926	234,32
927	232,44
928	214,19
929	160,36
930	188,91
931	257,72
932	163,63
933	207,17
934	282,53
935	234,32
936	230,1
937	187,97
938	208,57
939	222,61
940	193,12
941	237,59
942	246,02
943	189,38
944	151,93
945	185,63
946	227,3
947	202,02
948	157,08
949	235,25
950	164,1
951	250,23
952	121,5
953	187,97
954	225,42
955	196,4
956	180,48
957	192,66
958	214,19
959	163,16
960	137,42
961	92,95
962	172,99
963	131,33
964	195,93
965	204,36
966	189,85
967	201,08
968	197,34
969	155,21
970	150,53
971	178,61
972	105,59
973	127,12
974	168,31
975	222,61
976	153,33
977	155,67
978	182,83
979	172,53
980	242,74
981	154,27
982	154,74
983	135,55
984	174,87
985	99,03
986	136,95
987	149,59
988	126,18
989	79,37
990	167,38
991	158,48
992	232,44
993	166,91
994	153,8
995	146,31
996	54,56
997	161,29
998	154,74
999	122,44
1000	164,57
1001	50,35
1002	152,87
1003	162,7
1004	181,89
1005	103,71
1006	16,18
1007	173,93
1008	147,72
1009	114,48
1010	95,76
1011	110,27
1012	186,57
1013	146,78
1014	133,67
1015	171,12
1016	112,61
1017	131,33
1018	120,1
1019	119,16
1020	185,63
1021	134,61
1022	141,16
1023	142,1
1024	217
1025	108,86
1026	87,8
1027	76,56
1028	139,29
1029	142,1
1030	171,59
1031	37,71
1032	112,14
1033	78,91
1034	87,33
1035	109,33
1036	65,8
1037	97,16
1038	70,95
1039	68,14
1040	160,82
1041	88,27
1042	135,08
1043	82,18
1044	126,18
1045	84,05
1046	137,89
1047	165,51
1048	103,25
1049	107,93
1050	84,99
1051	91,08
1052	130,87
1053	88,74
1054	57,37
1055	32,09
1056	99,5
1057	170,65
1058	182,83
1059	112,14
1060	86,4
1061	95,29
1062	139,76
1063	116,82
1064	156,14
1065	136,01
1066	26,01
1067	35,37
1068	55,03
1069	71,42
1070	144,91
1071	60,18
1072	75,16
1073	120,1
1074	65,33
1075	90,14
1076	106,99
1077	128,99
1078	75,63
1079	100,44
1080	101,37
1081	40,99
1082	20,86
1083	49,41
1084	88,74
1085	120,57
1086	82,65
1087	52,69
1088	40,52
1089	93,88
1090	116,82
1091	84,05
1092	81,71
1093	80,31
1094	99,5
1095	96,23
1096	105,59
1097	126,65
1098	57,37
1099	97,63
1100	83,12
1101	35,84
1102	55,97
1103	98,57
1104	110,74
1105	112,14
1106	163,16
1107	147,72
1108	73,76
1109	99,03
1110	114,01
1111	94,82
1112	102,78
1113	41,92
1114	41,46
1115	67,67
1116	62,52
1117	-18,93
1118	87,33
1119	62,99
1120	96,23
1121	54,1
1122	44,73
1123	99,5
1124	32,56
1125	84,99
1126	60,18
1127	119,16
1128	25,54
1129	-5,82
1130	123,84
1131	67,2
1132	69,54
1133	89,67
1134	29,29
1135	47,07
1136	75,16
1137	2,6
1138	81,71
1139	57,84
1140	77,97
1141	81,25
1142	62,99
1143	43,8
1144	63,46
1145	20,39
1146	99,5
1147	90,14
1148	76,1
1149	25,07
1150	70,95
1151	70,95
1152	43,33
1153	20,39
1154	81,25
1155	-14,25
1156	99,97
1157	114,48
1158	83,12
1159	1,67
1160	23,67
1161	97,16
1162	70,01
1163	49,41
1164	136,48
1165	10,09
1166	64,86
1167	60,65
1168	13,84
1169	47,54
1170	-5,82
1171	-5,82
1172	35,37
1173	90,61
1174	29,75
1175	118,23
1176	11,5
1177	-6,76
1178	120,1
1179	57,84
1180	39,58
1181	86,4
1182	40,52
1183	-10,04
1184	71,42
1185	67,2
1186	100,44
1187	61,12
1188	53,16
1189	-14,72
1190	82,65
1191	30,69
1192	-22,21
1193	22,73
1194	-2,55
1195	47,07
1196	46,14
1197	38,18
1198	108,4
1199	105,12
1200	77,97
1201	84,99
1202	56,9
1203	70,48
1204	-23,61
1205	-14,72
1206	18,05
1207	103,71
1208	18,99
1209	-4,42
1210	64,86
1211	33,03
1212	48,01
1213	52,69
1214	89,2
1215	61,12
1216	-17,06
1217	29,29
1218	26,48
1219	81,25
1220	11,03
1221	60,18
1222	13,84
1223	116,35
1224	94,35
1225	41,46
1226	45,2
1227	84,99
1228	-7,23
1229	17,12
1230	16,18
1231	88,27
1232	34,44
1233	-2,55
1234	52,69
1235	45,2
1236	11,5
1237	72,35
1238	46,61
1239	34,9
1240	-8,16
1241	62,99
1242	0,73
1243	26,48
1244	77,03
1245	52,22
1246	39,12
1247	91,54
1248	44,27
1249	41,46
1250	41,46
1251	86,4
1252	94,35
1253	35,84
1254	31,63
1255	4,01
1256	-39,06
1257	17,58
1258	50,82
1259	21,8
1260	114,01
1261	26,48
1262	-44,67
1263	83,12
1264	-6,76
1265	4,94
1266	4,94
1267	-17,52
1268	59,71
1269	-11,44
1270	68,14
1271	-4,89
1272	82,18
1273	-20,33
1274	7,28
1275	29,29
1276	43,8
1277	46,61
1278	-2,55
1279	10,56
1280	35,84
1281	16,18
1282	76,1
1283	4,94
1284	62,05
1285	56,44
1286	34,44
1287	24,6
1288	-20,8
1289	35,37
1290	-66,68
1291	36,31
1292	33,5
1293	10,56
1294	60,18
1295	-62,93
1296	62,99
1297	-74,17
1298	-14,25
1299	88,27
1300	51,76
1301	16,65
1302	13,84
1303	31,16
1304	29,29
1305	61,12
1306	50,82
1307	60,18
1308	14,77
1309	48,01
1310	43,8
1311	-33,44
1312	78,44
1313	30,22
1314	-17,52
1315	-38,59
1316	55,97
1317	18,99
1318	45,2
1319	2,6
1320	18,99
1321	41,46
1322	73,76
1323	-31,57
1324	-9,57
1325	-21,27
1326	-37,65
1327	-25,48
1328	63,93
1329	0,26
1330	-9,57
1331	18,99
1332	-25,48
1333	-6,76
1334	21,33
1335	33,5
1336	11,5
1337	17,12
1338	-43,27
1339	-42,8
1340	31,63
1341	-21,27
1342	-28,76
1343	31,16
1344	-18,46
1345	33,03
1346	-110,68
1347	-65,74
1348	-38,59
1349	-42,8
1350	-18,46
1351	-11,44
1352	-16,59
1353	-8,16
1354	6,35
1355	-17,52
1356	-14,25
1357	-38,12
1358	-99,44
1359	-15,18
1360	-15,65
1361	-34,38
1362	39,12
1363	-5,82
1364	-1,61
1365	1,67
1366	-26,89
1367	14,31
1368	-25,48
1369	-0,2
1370	-43,27
1371	-26,42
1372	20,39
1373	62,99
1374	-11,91
1375	-27,82
1376	-45,61
1377	-60,59
1378	1,67
1379	-55,44
1380	-32,97
1381	-22,21
1382	-9,1
1383	-33,91
1384	-29,7
1385	14,77
1386	-41,87
1387	1,2
1388	-2,08
1389	-9,1
1390	-15,65
1391	30,69
1392	-37,65
1393	-76,51
1394	-23,14
1395	-34,84
1396	-2,08
1397	-45,14
1398	-15,65
1399	-26,89
1400	50,35
1401	21,33
1402	27,88
1403	-48,89
1404	0,73
1405	54,56
1406	0,26
1407	4,48
1408	-27,36
1409	-4,42
1410	4,01
1411	-14,72
1412	-27,82
1413	14,31
1414	-15,18
1415	-51,23
1416	-14,25
1417	-17,52
1418	29,75
1419	-78,85
1420	-55,44
1421	22,26
1422	8,69
1423	22,26
1424	-2,08
1425	38,65
1426	-33,44
1427	22,26
1428	66,27
1429	8,69
1430	8,22
1431	28,35
1432	64,39
1433	-135,02
1434	-77,44
1435	61,12
1436	24,14
1437	-53,1
1438	16,65
1439	32,56
1440	-19,87
1441	32,09
1442	99,03
1443	7,75
1444	31,63
1445	-0,67
1446	-2,55
1447	-22,21
1448	-47,95
1449	12,43
1450	-0,2
1451	-16,59
1452	-25,01
1453	-106
1454	-32,04
1455	-28,76
1456	22,73
1457	-30,16
1458	47,07
1459	50,82
1460	-26,42
1461	59,24
1462	-58,25
1463	3,54
1464	-20,33
1465	-54,51
1466	4,48
1467	18,52
1468	-57,78
1469	2,6
1470	-24,55
1471	61,12
1472	-3,95
1473	-5,82
1474	-58,72
1475	-38,12
1476	10,09
1477	20,86
1478	2,6
1479	-24,08
1480	-85,87
1481	-10,97
1482	69,54
1483	-16,59
1484	-53,57
1485	-78,38
1486	45,2
1487	-43,74
1488	9,63
1489	26,95
1490	-56,38
1491	30,22
1492	40,52
1493	0,26
1494	-50,29
1495	-5,35
1496	-50,29
1497	49,41
1498	96,69
1499	82,65
1500	-32,04
1501	77,5
1502	-33,44
1503	-0,2
1504	47,07
1505	-52,16
1506	-1,14
1507	-36,25
1508	-25,01
1509	-33,91
1510	-47,48
1511	22,26
1512	80,31
1513	8,69
1514	-29,23
1515	-34,84
1516	33,97
1517	-24,08
1518	-18,46
1519	31,63
1520	9,63
1521	24,6
1522	-91,49
1523	-32,04
1524	44,27
1525	-0,67
1526	6,35
1527	-0,67
1528	31,16
1529	7,75
1530	71,42
1531	-35,31
1532	-25,95
1533	3,54
1534	-35,31
1535	16,18
1536	-2,55
1537	-5,35
1538	69,54
1539	19,46
1540	-60,12
1541	-22,67
1542	-54,04
1543	17,12
1544	2,6
1545	68,14
1546	18,05
1547	-43,74
1548	-24,08
1549	45,2
1550	-24,08
1551	-13,31
1552	-18,46
1553	24,6
1554	-1,61
1555	28,82
1556	-6,29
1557	40,52
1558	-8,63
1559	38,65
1560	46,14
1561	-34,84
1562	-40,46
1563	50,35
1564	76,56
1565	-19,87
1566	15,24
1567	87,8
1568	38,65
1569	-31,1
1570	11,03
1571	2,14
1572	-54,97
1573	-18,93
1574	9,63
1575	-5,35
1576	63,46
1577	65,33
1578	32,09
1579	7,75
1580	-46,55
1581	89,2
1582	13,37
1583	-101,78
1584	-14,25
1585	-37,65
1586	57,37
1587	-13,78
1588	-64,8
1589	-56,85
1590	39,12
1591	-4,89
1592	25,54
1593	17,12
1594	-55,44
1595	33,97
1596	40,52
1597	42,39
1598	4,94
1599	6,35
1600	33,03
1601	3,54
1602	-43,27
1603	67,67
1604	15,24
1605	17,12
1606	32,56
1607	-89,15
1608	9,63
1609	4,48
1610	-53,1
1611	30,22
1612	18,52
1613	50,82
1614	0,26
1615	31,63
1616	42,39
1617	33,03
1618	-12,84
1619	94,35
1620	2,14
1621	8,22
1622	46,14
1623	8,22
1624	41,46
1625	9,63
1626	40,05
1627	-21,74
1628	37,24
1629	-3,01
1630	47,07
1631	-10,04
1632	6,35
1633	30,22
1634	63,93
1635	-8,16
1636	9,63
1637	28,35
1638	18,99
1639	108,86
1640	-13,31
1641	-14,25
1642	20,86
1643	11,97
1644	-15,18
1645	-34,84
1646	13,84
1647	16,18
1648	-26,89
1649	-45,14
1650	99,03
1651	-27,82
1652	15,71
1653	-26,42
1654	9,63
1655	4,01
1656	-5,35
1657	-36,72
1658	-17,52
1659	28,35
1660	37,71
1661	-45,61
1662	-23,61
1663	12,9
1664	-23,14
1665	42,39
1666	27,41
1667	13,84
1668	0,26
1669	28,82
1670	35,37
1671	-20,33
1672	31,63
1673	-81,19
1674	19,92
1675	44,27
1676	21,8
1677	9,16
1678	-7,69
1679	-34,84
1680	83,59
1681	28,35
1682	64,39
1683	-10,04
1684	36,31
1685	46,61
1686	58,31
1687	0,73
1688	25,07
1689	-2,08
1690	-36,25
1691	-24,55
1692	6,82
1693	-40,93
1694	8,69
1695	39,12
1696	-7,23
1697	1,67
1698	29,29
1699	16,65
1700	-8,63
1701	5,41
1702	-11,44
1703	-12,38
1704	-29,7
1705	47,07
1706	-20,8
1707	32,09
1708	-14,72
1709	-28,76
1710	-31,57
1711	37,24
1712	4,48
1713	-32,5
1714	-2,08
1715	48,01
1716	-16,12
1717	-46,08
1718	16,18
1719	10,09
1720	-37,65
1721	30,69
1722	-8,16
1723	11,97
1724	-27,82
1725	20,86
1726	37,24
1727	16,65
1728	20,86
1729	-49,36
1730	100,44
1731	-36,72
1732	-38,12
1733	-27,36
1734	13,84
1735	44,27
1736	49,88
1737	10,09
1738	40,99
1739	19,92
1740	75,16
1741	83,59
1742	18,05
1743	21,33
1744	42,86
1745	0,26
1746	-27,36
1747	-5,35
1748	-30,63
1749	-25,48
1750	-18,46
1751	16,65
1752	55,97
1753	61,59
1754	22,73
1755	38,18
1756	107,93
1757	44,27
1758	58,78
1759	45,2
1760	-61,99
1761	0,26
1762	-15,18
1763	53,16
1764	-38,12
1765	40,05
1766	13,84
1767	-59,65
1768	16,18
1769	22,26
1770	-33,44
1771	79,84
1772	86,4
1773	28,82
1774	5,88
1775	13,84
1776	-34,84
1777	27,41
1778	2,6
1779	42,39
1780	0,26
1781	20,86
1782	-19,87
1783	-35,78
1784	36,31
1785	40,52
1786	18,05
1787	-33,44
1788	-56,85
1789	-37,19
1790	-4,89
1791	-24,08
1792	18,05
1793	17,12
1794	7,28
1795	-15,18
1796	-12,84
1797	-1,14
1798	-18,46
1799	-67,14
1800	-28,76
1801	-13,31
1802	70,48
1803	44,73
1804	-18,93
1805	-2,08
1806	-32,97
1807	-48,89
1808	31,63
1809	-26,42
1810	18,99
1811	-15,65
1812	42,86
1813	31,16
1814	50,82
1815	-44,21
1816	27,88
1817	3,54
1818	-12,84
1819	-7,23
1820	-12,38
1821	27,41
1822	-61,99
1823	-7,69
1824	62,05
1825	33,5
1826	-45,61
1827	58,78
1828	40,52
1829	-29,7
1830	-8,16
1831	24,6
1832	52,22
1833	37,24
1834	17,12
1835	32,09
1836	-29,7
1837	36,78
1838	-59,19
1839	51,29
1840	18,52
1841	62,52
1842	-18,46
1843	-23,14
1844	-37,65
1845	-10,97
1846	45,2
1847	-19,4
1848	-21,74
1849	7,28
1850	-8,63
1851	60,18
1852	-24,55
1853	30,22
1854	-9,57
1855	9,16
1856	-8,16
1857	81,25
1858	48,48
1859	43,33
1860	-20,8
1861	11,03
1862	50,35
1863	28,35
1864	-14,25
1865	30,69
1866	81,71
1867	1,2
1868	-10,04
1869	-43,27
1870	31,63
1871	8,22
1872	17,58
1873	15,71
1874	19,92
1875	-20,8
1876	-1,14
1877	5,88
1878	-54,97
1879	-23,14
1880	40,52
1881	56,44
1882	74,22
1883	19,92
1884	10,09
1885	44,73
1886	44,27
1887	-28,76
1888	57,37
1889	54,1
1890	-33,91
1891	63,46
1892	-7,69
1893	57,84
1894	24,6
1895	38,65
1896	-6,76
1897	11,5
1898	4,01
1899	77,03
1900	-87,27
1901	-43,27
1902	-2,55
1903	-69,95
1904	40,52
1905	2,14
1906	46,61
1907	-29,23
1908	-18,46
1909	11,03
1910	-26,42
1911	10,09
1912	-13,31
1913	71,88
1914	18,99
1915	33,97
1916	-22,67
1917	49,41
1918	81,71
1919	-13,78
1920	-8,16
1921	-95,7
1922	-25,48
1923	-31,1
1924	5,88
1925	-22,67
1926	-54,51
1927	-51,23
1928	-6,76
1929	-5,82
1930	20,86
1931	-45,61
1932	46,14
1933	-2,08
1934	57,37
1935	-25,95
1936	5,41
1937	-32,97
1938	38,65
1939	-7,69
1940	-54,97
1941	78,44
1942	48,48
1943	66,27
1944	-46,08
1945	39,12
1946	-69,48
1947	65,8
1948	38,65
1949	18,05
1950	-11,91
1951	85,46
1952	78,91
1953	16,65
1954	4,48
1955	6,35
1956	-11,91
1957	23,67
1958	17,12
1959	16,65
1960	16,18
1961	20,86
1962	40,99
1963	41,92
1964	59,24
1965	41,92
1966	-45,61
1967	-51,23
1968	44,27
1969	-3,95
1970	-4,89
1971	-26,42
1972	10,56
1973	41,46
1974	18,05
1975	-6,76
1976	4,48
1977	33,5
1978	25,07
1979	-36,72
1980	-6,76
1981	-31,1
1982	-18,46
1983	7,75
1984	58,31
1985	80,31
1986	-43,74
1987	27,41
1988	37,24
1989	-58,72
1990	11,97
1991	-84,46
1992	-16,12
1993	20,39
1994	0,73
1995	52,22
1996	-1,14
1997	40,05
1998	0,73
1999	-35,78
2000	-40,93
2001	-52,16
2002	20,86
2003	-22,21
2004	-16,12
2005	0,73
2006	0,73
2007	41,92
2008	-4,42
2009	44,27
2010	-14,72
2011	80,78
2012	-18,93
2013	69,54
2014	-50,76
2015	35,84
2016	-37,19
2017	43,33
2018	50,82
2019	64,86
2020	-19,4
2021	-4,42
2022	-8,63
2023	-15,18
2024	66,27
2025	-20,33
2026	54,1
2027	-25,48
2028	40,99
2029	10,56
2030	-11,44
2031	23,2
2032	18,52
2033	39,58
2034	-8,63
2035	4,94
2036	28,82
2037	59,71
2038	-36,25
2039	37,24
2040	-85,87
2041	44,27
2042	27,41
2043	27,41
2044	11,97
2045	5,41
2046	5,41
2047	5,41
