Data from Subt2_15-50-38-176.txt Node
Date: Wed Apr 21 15:50:38 CEST 2021
User: au643642
Spectrometer: FLMS05507
Trigger mode: 0
Integration Time (sec): 2,300000E-2
Scans to average: 5
Electric dark correction enabled: true
Nonlinearity correction enabled: false
Boxcar width: 0
XAxis mode: Pixels
Number of Pixels in Spectrum: 2048
>>>>>Begin Spectral Data<<<<<
0	43,86
1	43,86
2	43,86
3	77,56
4	90,67
5	5,47
6	20,92
7	34,96
8	-74,58
9	56,96
10	-11,38
11	-55,38
12	-27,76
13	30,28
14	87,86
15	-7,64
16	-14,66
17	4,07
18	-39,94
19	-34,79
20	25,6
21	-10,44
22	-75,04
23	-57,26
24	0,32
25	-47,89
26	4,07
27	122,5
28	3,13
29	-20,27
30	-48,36
31	-48,36
32	11,56
33	-39
34	19,98
35	-44,62
36	27
37	63,05
38	6,41
39	39,64
40	-30,57
41	-57,72
42	28,88
43	40,58
44	52,28
45	-8,1
46	-2,49
47	35,43
48	-80,19
49	28,41
50	51,81
51	-36,66
52	-19,34
53	0,79
54	42,92
55	-31,04
56	-14,19
57	-0,15
58	-10,91
59	56,96
60	30,28
61	-42,74
62	-15,13
63	-5,3
64	-28,7
65	1,73
66	32,15
67	-81,13
68	-59,13
69	41,05
70	74,75
71	-0,15
72	26,54
73	-8,1
74	-8,57
75	-79,26
76	66,32
77	38,71
78	18,58
79	1,73
80	18,11
81	-20,74
82	33,09
83	37,3
84	42,92
85	-2,02
86	48,54
87	-19,81
88	-10,44
89	-5,76
90	-0,15
91	60,24
92	106,11
93	34,49
94	-84,87
95	57,43
96	-45,08
97	74,75
98	17,17
99	-9,04
100	-39
101	-78,79
102	12,96
103	-20,74
104	-54,91
105	-9,04
106	-12,32
107	-46,49
108	-27,3
109	45,73
110	9,22
111	56,96
112	-13,25
113	24,66
114	-58,66
115	38,24
116	10,15
117	85,99
118	-17
119	-1,55
120	-6,7
121	34,96
122	15,3
123	107,99
124	-26,83
125	55,56
126	60,24
127	-12,79
128	25,13
129	-13,25
130	61,18
131	6,41
132	-32,45
133	2,66
134	-25,42
135	-81,13
136	5,94
137	26,07
138	26,54
139	10,62
140	30,75
141	-24,02
142	75,69
143	-57,72
144	42,92
145	-8,1
146	-6,7
147	-73,17
148	41,98
149	26,07
150	-2,49
151	15,3
152	-60,06
153	27,94
154	19,05
155	-38,06
156	-23,55
157	5,47
158	82,71
159	73,81
160	30,75
161	74,75
162	-72,23
163	62,58
164	-74,58
165	0,32
166	31,22
167	-51,17
168	5
169	24,2
170	-38,06
171	-76,92
172	5
173	-69,89
174	-17,93
175	74,28
176	-18,87
177	-18,4
178	-89,09
179	57,43
180	-34,79
181	-36,66
182	41,05
183	-51,17
184	22,32
185	5,47
186	45,26
187	14,37
188	-52,11
189	-15,13
190	43,86
191	-11,85
192	0,79
193	5,94
194	17,17
195	23,26
196	-57,26
197	-36,66
198	-48,36
199	38,71
200	20,92
201	5
202	60,24
203	-45,08
204	-59,6
205	64,92
206	-14,19
207	19,51
208	-17,93
209	-24,02
210	2,19
211	-37,13
212	-46,49
213	20,45
214	27,94
215	-13,72
216	12,02
217	-19,81
218	1,26
219	-9,04
220	29,34
221	-4,36
222	67,73
223	52,28
224	4,53
225	-36,19
226	-11,38
227	-17,93
228	0,79
229	52,75
230	5
231	19,05
232	18,11
233	17,17
234	59,77
235	36,83
236	37,77
237	55,09
238	7,34
239	42,92
240	-68,49
241	-5,3
242	-39
243	63,52
244	25,13
245	-19,34
246	68,67
247	10,15
248	2,66
249	82,24
250	24,66
251	25,6
252	5
253	-26,83
254	14,83
255	8,28
256	-30,57
257	-9,51
258	23,26
259	-2,02
260	65,86
261	-89,55
262	41,98
263	6,88
264	-55,85
265	73,81
266	5
267	-21,68
268	62,11
269	-25,42
270	-9,04
271	-18,4
272	-73,64
273	-7,17
274	60,24
275	5,47
276	-17,47
277	1,26
278	8,28
279	-69,43
280	12,02
281	20,92
282	14,37
283	5,94
284	-52,57
285	3,6
286	-46,96
287	4,53
288	-4,83
289	-57,72
290	-8,1
291	13,43
292	13,43
293	21,39
294	-25,89
295	29,81
296	14,83
297	60,24
298	-42,28
299	108,45
300	-65,68
301	-57,72
302	9,68
303	78,96
304	-21,21
305	-26,83
306	-20,27
307	-17,47
308	0,32
309	-5,76
310	23,26
311	-22,15
312	-56,79
313	39,64
314	-31,98
315	75,22
316	-9,51
317	-15,59
318	-48,83
319	-15,13
320	5,47
321	-2,95
322	0,32
323	-52,11
324	14,37
325	19,98
326	-2,95
327	13,9
328	61,64
329	50,41
330	-11,38
331	-21,21
332	81,77
333	-42,28
334	-51,17
335	-36,19
336	47,13
337	-39,47
338	-53,98
339	-41,81
340	4,07
341	-8,57
342	10,62
343	-7,64
344	0,32
345	42,45
346	29,34
347	-13,25
348	-0,61
349	-22,15
350	-34,32
351	7,34
352	-20,74
353	24,66
354	-6,23
355	-90,02
356	11,09
357	-85,34
358	-11,85
359	-2,49
360	3,6
361	15,77
362	6,88
363	-9,04
364	88,79
365	-14,66
366	-52,11
367	28,88
368	-45,55
369	18,11
370	22,32
371	2,66
372	34,96
373	42,45
374	-18,4
375	-40,4
376	-4,36
377	47,6
378	38,71
379	21,85
380	31,22
381	-37,13
382	34,49
383	18,11
384	4,53
385	48,07
386	12,96
387	110,33
388	-41,34
389	47,6
390	7,34
391	-10,44
392	-12,32
393	-52,11
394	-4,83
395	15,3
396	102,37
397	43,39
398	40,11
399	-15,59
400	43,39
401	41,98
402	20,92
403	46,66
404	-10,91
405	55,09
406	20,92
407	57,43
408	-16,53
409	6,41
410	-15,59
411	41,05
412	12,96
413	44,79
414	95,35
415	19,98
416	32,62
417	-11,85
418	-51,64
419	-17,47
420	-25,89
421	-21,68
422	85,99
423	18,58
424	33,56
425	-9,04
426	67,73
427	20,92
428	53,69
429	-53,51
430	-39
431	53,69
432	-41,34
433	-26,83
434	-7,64
435	17,17
436	23,26
437	57,43
438	-17
439	-11,85
440	-1,55
441	-7,17
442	-49,77
443	71,94
444	-30,57
445	-29,64
446	-13,25
447	-0,61
448	-72,7
449	62,11
450	44,79
451	75,22
452	14,83
453	28,88
454	-8,57
455	12,96
456	53,69
457	25,6
458	27,47
459	-13,72
460	-70,83
461	-47,43
462	48,54
463	38,71
464	77,09
465	27,47
466	46,66
467	96,75
468	76,62
469	-55,38
470	5,47
471	-2,49
472	17,17
473	7,34
474	6,88
475	8,28
476	-13,72
477	21,39
478	21,85
479	111,73
480	47,13
481	41,98
482	106,58
483	48,54
484	137,01
485	161,82
486	67,26
487	49,94
488	78,96
489	76,62
490	120,16
491	94,41
492	105,18
493	95,82
494	82,71
495	113,14
496	151,52
497	112,67
498	98,62
499	151,05
500	94,88
501	100,03
502	166,97
503	78,03
504	109,86
505	63,98
506	119,22
507	155,27
508	140,29
509	123,43
510	151,99
511	62,58
512	146,84
513	181,01
514	120,16
515	127,18
516	161,35
517	104,24
518	94,88
519	107,52
520	100,5
521	67,73
522	163,69
523	70,54
524	94,41
525	96,28
526	83,64
527	154,33
528	82,24
529	34,96
530	47,13
531	46,2
532	13,43
533	127,18
534	77,56
535	29,81
536	78,03
537	13,9
538	78,5
539	32,62
540	102,37
541	66,79
542	83,18
543	91,6
544	74,75
545	-67,55
546	-176,62
547	-206,11
548	-178,96
549	-97,51
550	-12,32
551	19,51
552	70,54
553	63,05
554	16,71
555	-25,89
556	105,18
557	66,79
558	-17,47
559	2,66
560	86,92
561	89,26
562	35,9
563	67,73
564	27,94
565	1,26
566	64,92
567	27,94
568	-2,49
569	57,9
570	66,32
571	22,79
572	-13,25
573	-13,25
574	75,22
575	11,56
576	58,84
577	-25,42
578	47,6
579	-31,51
580	41,98
581	0,32
582	-1,55
583	-108,75
584	-39
585	-58,66
586	-67,09
587	11,09
588	-21,68
589	4,53
590	18,58
591	-45,55
592	-81,6
593	-26,36
594	-42,28
595	-20,74
596	-56,32
597	-64,28
598	-36,66
599	-29,64
600	-9,98
601	-82,07
602	-60,06
603	40,58
604	2,66
605	-19,81
606	40,11
607	56,03
608	-29,64
609	-71,77
610	23,73
611	16,24
612	-13,25
613	-8,1
614	-58,19
615	-18,87
616	-24,96
617	-60,06
618	-173,35
619	-19,34
620	-31,98
621	-22,15
622	-3,89
623	-24,96
624	-48,36
625	13,9
626	-37,13
627	-4,83
628	-34,32
629	-22,62
630	-49,3
631	2,19
632	15,3
633	17,64
634	1,26
635	-17
636	-42,74
637	39,17
638	-31,04
639	-11,38
640	-31,98
641	-97,51
642	-19,81
643	85,52
644	15,3
645	-23,08
646	64,45
647	35,43
648	28,88
649	-33,38
650	11,56
651	-10,91
652	-115,77
653	-60,06
654	-8,1
655	22,79
656	66,32
657	-30,57
658	-43,68
659	28,41
660	-2,95
661	-26,83
662	-53,51
663	-100,32
664	-135,9
665	-145,73
666	-81,13
667	-125,13
668	-70,83
669	-105,47
670	24,66
671	-42,74
672	-46,49
673	-7,17
674	-30,11
675	-68,96
676	12,96
677	32,62
678	144,97
679	15,77
680	91,6
681	84,58
682	153,86
683	68,2
684	70,54
685	153,39
686	176,33
687	123,9
688	159,48
689	143,56
690	141,22
691	152,46
692	209,57
693	196,46
694	180,54
695	264,8
696	185,69
697	160,88
698	181,01
699	219,86
700	255,91
701	204,88
702	193,65
703	272,76
704	181,01
705	219,86
706	288,21
707	222,2
708	287,74
709	249,82
710	222,2
711	299,44
712	275,57
713	225,95
714	306,46
715	353,74
716	293,83
717	234,84
718	254,97
719	383,7
720	279,31
721	284,93
722	278,38
723	298,04
724	313,49
725	291,02
726	275,57
727	300,38
728	292,42
729	310,68
730	307,4
731	248,89
732	318,17
733	355,15
734	310,21
735	331,27
736	397,28
737	288,68
738	334,55
739	306,46
740	251,23
741	263,87
742	327,06
743	375,28
744	342,04
745	375,28
746	249,35
747	379,49
748	298,51
749	354,68
750	358,89
751	321,44
752	373,87
753	385,11
754	312,55
755	412,72
756	315,83
757	391,19
758	264,8
759	271,36
760	384,17
761	374,34
762	293,83
763	391,66
764	334,08
765	384,17
766	391,66
767	401,96
768	314,89
769	431,45
770	248,89
771	403,83
772	373,4
773	234,38
774	356,08
775	360,3
776	371,06
777	349,53
778	370,59
779	341,57
780	496,98
781	328
782	397,28
783	366,85
784	407,11
785	337,83
786	356,55
787	290,55
788	374,34
789	390,72
790	351,87
791	318,63
792	274,63
793	303,19
794	287,27
795	328
796	354,68
797	356,55
798	379,02
799	291,95
800	323,78
801	306,46
802	283,99
803	280,25
804	319,57
805	245,14
806	233,44
807	342,98
808	331,27
809	342,98
810	344,38
811	306,46
812	374,81
813	328,93
814	351,87
815	396,81
816	347,66
817	394
818	366,85
819	288,21
820	288,68
821	365,91
822	309,74
823	342,04
824	423,49
825	339,23
826	369,66
827	379,49
828	349,06
829	371,53
830	352,81
831	272,29
832	395,4
833	348,59
834	339,7
835	335,49
836	333,61
837	369,19
838	267,61
839	357,49
840	376,21
841	417,87
842	330,81
843	302,25
844	306
845	327,53
846	351,4
847	376,68
848	291,48
849	347,19
850	375,74
851	360,3
852	282,12
853	308,8
854	332,68
855	299,91
856	287,27
857	313,49
858	374,34
859	383,23
860	322,38
861	349,53
862	382,3
863	297,1
864	342,98
865	296,63
866	254,04
867	299,91
868	369,19
869	347,66
870	303,66
871	307,4
872	306,93
873	356,08
874	214,71
875	254,97
876	222,2
877	290,08
878	310,68
879	270,89
880	323,32
881	315,83
882	317,7
883	257,78
884	306,93
885	341,57
886	222,67
887	282,12
888	205,82
889	255,44
890	274,63
891	241,4
892	271,36
893	259,19
894	236,25
895	177,73
896	239,52
897	277,44
898	290,08
899	290,55
900	239,06
901	280,72
902	201,61
903	204,42
904	229,23
905	346,25
906	252,16
907	254,97
908	269,95
909	264,33
910	287,27
911	332,21
912	283,53
913	271,36
914	280,72
915	255,91
916	274,63
917	249,82
918	297,57
919	262,93
920	264,8
921	298,04
922	220,8
923	292,89
924	229,23
925	339,7
926	269,48
927	310,21
928	276,04
929	224,08
930	240,93
931	312,55
932	190,37
933	261,53
934	316,76
935	311,61
936	275,1
937	234,38
938	280,25
939	271,36
940	174,46
941	239,06
942	275,1
943	254,04
944	180,54
945	199,27
946	232,5
947	212,37
948	220,8
949	282,12
950	198,33
951	299,91
952	154,33
953	204,88
954	264,8
955	244,21
956	233,44
957	200,67
958	232,5
959	188,97
960	190,37
961	155,27
962	194,59
963	188,97
964	195,52
965	222,67
966	204,42
967	268,55
968	223,61
969	214,25
970	211,44
971	198,33
972	132,8
973	181,95
974	170,71
975	245,14
976	193,18
977	202,08
978	211,91
979	183,82
980	282,12
981	196,93
982	190,84
983	194,12
984	205,82
985	151,99
986	152,46
987	161,82
988	148,24
989	138,41
990	228,29
991	164,16
992	232,97
993	205,82
994	146,84
995	206,29
996	113,6
997	167,44
998	132,8
999	124,84
1000	181,01
1001	68,2
1002	185,69
1003	206,76
1004	197,86
1005	134,67
1006	76,16
1007	166,97
1008	158,54
1009	149,65
1010	105,65
1011	139,35
1012	209,57
1013	176,8
1014	185,22
1015	208,63
1016	130,46
1017	141,69
1018	123,9
1019	123,43
1020	215,65
1021	139,35
1022	150,12
1023	161,82
1024	268,55
1025	139,82
1026	135,14
1027	89,26
1028	150,12
1029	179,61
1030	170,71
1031	109,86
1032	111,73
1033	98,62
1034	143,09
1035	124,37
1036	65,39
1037	138,41
1038	96,75
1039	93,01
1040	189,44
1041	108,92
1042	132,8
1043	132,33
1044	108,92
1045	127,65
1046	171,18
1047	192,71
1048	123,9
1049	145,44
1050	147,78
1051	110,8
1052	106,58
1053	103,77
1054	116,41
1055	50,41
1056	114,54
1057	158,54
1058	230,63
1059	148,71
1060	111,73
1061	122,03
1062	172,59
1063	113,14
1064	160,41
1065	144,03
1066	45,73
1067	41,52
1068	101,43
1069	109,86
1070	176,8
1071	92,07
1072	135,6
1073	129,05
1074	78,03
1075	132,8
1076	106,58
1077	124,37
1078	81,77
1079	141,22
1080	101,43
1081	68,67
1082	18,58
1083	67,26
1084	102,37
1085	123,9
1086	81,3
1087	54,62
1088	24,2
1089	93,48
1090	131,39
1091	93,94
1092	116,41
1093	88,79
1094	102,37
1095	140,29
1096	126,24
1097	112,2
1098	59,77
1099	79,9
1100	72,41
1101	7,34
1102	69,6
1103	113,14
1104	111,26
1105	145,44
1106	161,82
1107	205,35
1108	64,45
1109	98,16
1110	136,07
1111	72,88
1112	105,65
1113	58,37
1114	42,45
1115	69,6
1116	60,71
1117	23,73
1118	90,67
1119	74,28
1120	159,01
1121	56,49
1122	91,13
1123	62,58
1124	25,13
1125	76,16
1126	59,77
1127	125,31
1128	66,32
1129	-30,57
1130	113,6
1131	136,54
1132	89,73
1133	103,77
1134	42,92
1135	52,28
1136	96,75
1137	15,3
1138	35,9
1139	53,22
1140	125,77
1141	62,11
1142	104,24
1143	27,47
1144	18,58
1145	53,22
1146	115,48
1147	121,56
1148	115,01
1149	39,17
1150	94,88
1151	42,45
1152	61,18
1153	37,3
1154	88,33
1155	22,79
1156	111,26
1157	104,71
1158	88,33
1159	26,54
1160	1,26
1161	115,48
1162	107,52
1163	42,92
1164	123,9
1165	-5,76
1166	55,56
1167	61,18
1168	28,88
1169	29,81
1170	29,81
1171	-17,47
1172	34,96
1173	94,88
1174	47,13
1175	108,92
1176	3,6
1177	61,64
1178	136,54
1179	45,26
1180	25,13
1181	113,6
1182	50,88
1183	32,62
1184	81,77
1185	63,98
1186	98,16
1187	28,88
1188	32,15
1189	25,13
1190	71,01
1191	51,81
1192	3,13
1193	8,75
1194	7,81
1195	49,94
1196	74,75
1197	87,86
1198	81,77
1199	102,37
1200	110,8
1201	54,62
1202	27,94
1203	44,32
1204	-4,83
1205	-22,62
1206	9,22
1207	69,13
1208	-1,08
1209	8,75
1210	17,64
1211	67,26
1212	61,64
1213	75,69
1214	95,82
1215	46,2
1216	2,66
1217	23,26
1218	38,71
1219	91,13
1220	4,53
1221	47,13
1222	0,32
1223	112,2
1224	35,9
1225	-19,81
1226	59,3
1227	78,5
1228	-31,51
1229	35,43
1230	11,09
1231	52,75
1232	37,3
1233	47,6
1234	52,75
1235	51,35
1236	5
1237	55,56
1238	40,11
1239	17,17
1240	-9,51
1241	71,47
1242	-27,3
1243	-11,38
1244	58,84
1245	46,66
1246	58,84
1247	65,86
1248	60,24
1249	55,56
1250	10,62
1251	92,07
1252	102,84
1253	49,47
1254	42,92
1255	7,34
1256	-35,72
1257	11,09
1258	48,07
1259	11,09
1260	86,92
1261	62,58
1262	-54,91
1263	68,67
1264	-25,89
1265	-6,7
1266	2,19
1267	-13,25
1268	53,22
1269	-26,83
1270	48,07
1271	9,68
1272	105,65
1273	-4,83
1274	15,3
1275	23,73
1276	44,32
1277	7,34
1278	8,28
1279	-0,15
1280	22,79
1281	-4,83
1282	82,24
1283	-7,17
1284	67,73
1285	76,16
1286	84,58
1287	8,75
1288	-48,83
1289	25,6
1290	-35,72
1291	71,01
1292	-1,55
1293	-4,36
1294	54,62
1295	-41,81
1296	65,39
1297	-74,58
1298	0,32
1299	45,26
1300	28,41
1301	7,81
1302	13,43
1303	16,71
1304	41,98
1305	65,39
1306	59,3
1307	66,79
1308	-10,44
1309	34,49
1310	-9,98
1311	-51,64
1312	43,39
1313	16,71
1314	-8,57
1315	-54,91
1316	46,2
1317	40,11
1318	29,34
1319	-20,74
1320	52,28
1321	28,41
1322	65,39
1323	-15,13
1324	-6,7
1325	-8,1
1326	-9,98
1327	-7,17
1328	72,41
1329	-28,7
1330	-41,34
1331	7,81
1332	-12,32
1333	-24,49
1334	-10,91
1335	19,98
1336	30,75
1337	7,34
1338	-53,04
1339	-18,87
1340	23,26
1341	-37,13
1342	-23,55
1343	53,22
1344	-31,98
1345	32,62
1346	-52,11
1347	-49,3
1348	-69,89
1349	-35,25
1350	-13,25
1351	-15,13
1352	-28,7
1353	-51,64
1354	-48,36
1355	-43,21
1356	-17,93
1357	-31,51
1358	-99,38
1359	-14,66
1360	-28,23
1361	-31,04
1362	25,13
1363	8,28
1364	-12,32
1365	-15,13
1366	3,13
1367	31,69
1368	-15,59
1369	5
1370	-75,51
1371	-34,79
1372	-6,23
1373	40,58
1374	-53,51
1375	-30,11
1376	-40,87
1377	-43,68
1378	27,94
1379	-49,77
1380	-26,36
1381	-68,96
1382	-20,27
1383	-77,85
1384	-63,34
1385	1,73
1386	-55,38
1387	-16,06
1388	-14,66
1389	-18,87
1390	-0,61
1391	58,84
1392	-54,91
1393	-56,79
1394	10,15
1395	-35,72
1396	-5,76
1397	-73,64
1398	-21,68
1399	-16,53
1400	35,43
1401	-3,42
1402	-2,49
1403	-57,72
1404	7,81
1405	26,07
1406	-28,23
1407	-6,23
1408	-6,7
1409	-1,55
1410	-0,61
1411	-35,72
1412	-37,13
1413	27,47
1414	-8,1
1415	-67,55
1416	-4,83
1417	11,56
1418	6,88
1419	-45,55
1420	-46,02
1421	10,62
1422	-9,04
1423	6,88
1424	-6,7
1425	29,34
1426	-36,66
1427	14,37
1428	59,3
1429	-18,87
1430	33,56
1431	1,26
1432	36,37
1433	-96,58
1434	-94,7
1435	65,39
1436	25,6
1437	-36,19
1438	-35,25
1439	-2,02
1440	-17,47
1441	3,13
1442	92,07
1443	-49,77
1444	-29,17
1445	11,56
1446	3,13
1447	4,53
1448	-38,06
1449	-15,59
1450	-72,23
1451	35,43
1452	-60,53
1453	-118,11
1454	-18,87
1455	-42,28
1456	49
1457	-13,25
1458	23,73
1459	45,26
1460	-40,87
1461	51,81
1462	-13,25
1463	-5,76
1464	-45,55
1465	-3,42
1466	-32,45
1467	40,11
1468	-79,26
1469	-6,7
1470	-21,68
1471	71,01
1472	-2,02
1473	-16,53
1474	-1,08
1475	12,96
1476	35,43
1477	27,47
1478	13,43
1479	-11,38
1480	-68,96
1481	-58,19
1482	59,3
1483	-31,04
1484	-60,53
1485	-68,96
1486	34,49
1487	-20,27
1488	6,88
1489	42,45
1490	-85,34
1491	-0,61
1492	39,17
1493	5,94
1494	-49,77
1495	54,62
1496	-19,81
1497	31,69
1498	84,58
1499	86,45
1500	-62,4
1501	47,6
1502	-45,08
1503	-7,17
1504	38,71
1505	-2,49
1506	-32,45
1507	-25,42
1508	-19,81
1509	-19,81
1510	-44,15
1511	-14,66
1512	99,56
1513	13,9
1514	-50,23
1515	-32,45
1516	12,49
1517	-53,98
1518	-39
1519	32,62
1520	-15,13
1521	15,3
1522	-111,09
1523	-62,4
1524	28,41
1525	-31,04
1526	-9,04
1527	19,05
1528	3,6
1529	-24,02
1530	89,26
1531	-11,85
1532	-54,45
1533	11,56
1534	-26,83
1535	10,15
1536	12,96
1537	10,15
1538	62,11
1539	10,15
1540	-58,19
1541	-17,47
1542	-43,68
1543	16,71
1544	1,26
1545	36,83
1546	20,45
1547	-69,89
1548	-17,93
1549	-14,19
1550	-41,34
1551	1,73
1552	-5,76
1553	0,32
1554	-4,36
1555	22,32
1556	-10,44
1557	56,03
1558	2,19
1559	21,85
1560	49
1561	-43,21
1562	-64,75
1563	82,24
1564	75,22
1565	-28,23
1566	1,73
1567	118,75
1568	27,94
1569	-31,04
1570	5,94
1571	-1,08
1572	-94,24
1573	-72,23
1574	-27,3
1575	-36,19
1576	15,3
1577	-3,89
1578	23,73
1579	53,69
1580	-53,04
1581	74,28
1582	27,47
1583	-108,28
1584	-0,61
1585	-43,68
1586	36,83
1587	-10,44
1588	-28,23
1589	-84,87
1590	32,62
1591	-8,57
1592	-45,55
1593	-26,36
1594	-37,13
1595	12,49
1596	28,88
1597	36,37
1598	20,92
1599	-6,7
1600	53,22
1601	-18,87
1602	-29,64
1603	55,09
1604	-10,44
1605	26,07
1606	11,09
1607	-68,49
1608	35,43
1609	4,07
1610	-53,98
1611	45,73
1612	8,28
1613	15,77
1614	-2,95
1615	48,54
1616	14,37
1617	-0,15
1618	-18,87
1619	38,71
1620	30,75
1621	-31,98
1622	8,28
1623	8,75
1624	71,47
1625	4,53
1626	13,9
1627	-24,02
1628	33,56
1629	36,37
1630	37,3
1631	-32,45
1632	15,3
1633	14,83
1634	35,9
1635	-2,49
1636	-3,89
1637	-37,59
1638	19,98
1639	87,86
1640	-17
1641	-14,19
1642	12,96
1643	-20,74
1644	-28,7
1645	-70,83
1646	-21,21
1647	30,75
1648	-10,91
1649	-68,49
1650	84,11
1651	-39,47
1652	-38,06
1653	-43,68
1654	-9,04
1655	-0,15
1656	-15,13
1657	-42,28
1658	-5,76
1659	-25,89
1660	39,17
1661	-48,83
1662	-66,62
1663	-2,49
1664	-51,64
1665	7,34
1666	32,15
1667	19,05
1668	-43,68
1669	1,26
1670	22,32
1671	-32,45
1672	21,39
1673	-87,68
1674	1,26
1675	10,62
1676	41,52
1677	9,68
1678	-56,79
1679	-42,74
1680	56,96
1681	28,41
1682	55,09
1683	1,73
1684	29,34
1685	28,41
1686	42,92
1687	50,41
1688	16,71
1689	-3,42
1690	-52,11
1691	-24,49
1692	8,75
1693	-49,77
1694	-1,55
1695	8,75
1696	-19,81
1697	-0,61
1698	38,24
1699	-6,7
1700	-17
1701	2,66
1702	-8,1
1703	-28,23
1704	-12,79
1705	65,39
1706	-8,57
1707	-2,49
1708	-37,59
1709	-65,21
1710	-8,1
1711	8,75
1712	-25,89
1713	-32,91
1714	-18,87
1715	54,62
1716	-33,38
1717	-59,13
1718	-13,25
1719	-12,32
1720	-53,98
1721	24,2
1722	-34,32
1723	-11,38
1724	-11,85
1725	-3,89
1726	-18,4
1727	13,43
1728	6,41
1729	-53,51
1730	70,07
1731	-39,94
1732	-28,23
1733	-43,68
1734	44,79
1735	17,17
1736	37,77
1737	-8,57
1738	18,11
1739	8,28
1740	65,86
1741	74,28
1742	17,17
1743	-9,51
1744	49,94
1745	20,92
1746	-48,36
1747	22,79
1748	-40,87
1749	-31,04
1750	11,09
1751	39,64
1752	32,15
1753	33,09
1754	3,6
1755	28,41
1756	90,2
1757	27,47
1758	31,69
1759	25,13
1760	-72,23
1761	-23,08
1762	-26,83
1763	42,92
1764	-51,17
1765	14,37
1766	23,26
1767	-63,81
1768	0,32
1769	29,81
1770	-7,64
1771	31,22
1772	71,47
1773	27,94
1774	-31,51
1775	-11,85
1776	-29,64
1777	30,75
1778	9,22
1779	35,9
1780	-12,79
1781	20,92
1782	-56,79
1783	-27,76
1784	21,85
1785	16,71
1786	32,62
1787	-28,23
1788	-76,92
1789	-30,57
1790	-23,55
1791	-24,49
1792	21,39
1793	-14,19
1794	40,58
1795	13,9
1796	-43,21
1797	-27,3
1798	-20,27
1799	-68,96
1800	-31,51
1801	-43,21
1802	44,32
1803	1,26
1804	-34,79
1805	25,13
1806	-48,83
1807	-21,21
1808	3,13
1809	-14,66
1810	61,64
1811	-27,76
1812	3,6
1813	9,22
1814	25,6
1815	-14,19
1816	7,81
1817	-43,21
1818	-17,93
1819	1,26
1820	-12,79
1821	39,64
1822	-28,7
1823	-36,19
1824	70,07
1825	51,35
1826	-28,23
1827	92,07
1828	26,54
1829	0,32
1830	-36,19
1831	5
1832	49,94
1833	-27,3
1834	7,81
1835	40,11
1836	-18,87
1837	7,34
1838	-32,45
1839	19,98
1840	17,64
1841	86,92
1842	-63,34
1843	-35,25
1844	3,6
1845	-29,17
1846	28,41
1847	-24,96
1848	-9,04
1849	-16,53
1850	-15,59
1851	19,05
1852	-8,57
1853	3,6
1854	-9,51
1855	41,52
1856	-16,06
1857	38,71
1858	13,9
1859	107,99
1860	-63,34
1861	3,13
1862	21,39
1863	7,81
1864	-29,17
1865	25,6
1866	61,64
1867	-27,76
1868	-31,04
1869	-46,49
1870	-8,1
1871	53,22
1872	-6,7
1873	11,09
1874	-22,15
1875	-62,4
1876	-34,32
1877	-13,72
1878	-45,08
1879	-45,55
1880	32,15
1881	75,22
1882	63,52
1883	-36,19
1884	21,85
1885	40,11
1886	10,62
1887	-21,21
1888	12,49
1889	5
1890	-47,43
1891	41,52
1892	-4,83
1893	49,47
1894	42,45
1895	22,79
1896	12,49
1897	18,11
1898	-3,42
1899	42,92
1900	-86,75
1901	-23,55
1902	-15,13
1903	-46,49
1904	33,09
1905	20,45
1906	41,98
1907	-26,36
1908	13,9
1909	4,53
1910	-40,87
1911	24,2
1912	-14,19
1913	56,03
1914	-25,89
1915	25,6
1916	-30,11
1917	19,05
1918	45,26
1919	-24,49
1920	30,75
1921	-102,66
1922	-7,64
1923	-34,32
1924	-2,95
1925	-45,08
1926	-67,09
1927	-55,38
1928	-12,79
1929	-39,94
1930	-24,49
1931	-47,89
1932	37,77
1933	-24,49
1934	36,37
1935	-9,98
1936	48,07
1937	-54,91
1938	3,6
1939	-25,42
1940	-42,28
1941	83,18
1942	42,45
1943	22,32
1944	-34,79
1945	34,03
1946	-44,62
1947	50,41
1948	34,49
1949	25,13
1950	20,92
1951	96,28
1952	67,26
1953	-13,72
1954	-34,79
1955	-36,66
1956	-32,91
1957	-39,47
1958	23,73
1959	8,75
1960	24,66
1961	6,88
1962	54,62
1963	16,71
1964	65,86
1965	45,73
1966	-33,85
1967	-57,26
1968	78,96
1969	-46,02
1970	-2,49
1971	2,19
1972	4,07
1973	54,15
1974	12,02
1975	-23,55
1976	0,79
1977	18,58
1978	24,66
1979	-45,08
1980	-17,47
1981	-20,27
1982	-12,79
1983	26,07
1984	32,62
1985	59,3
1986	-97,51
1987	42,45
1988	12,96
1989	-80,19
1990	-15,59
1991	-90,02
1992	12,49
1993	35,43
1994	-28,7
1995	33,09
1996	-7,17
1997	19,98
1998	-9,51
1999	-29,17
2000	-31,51
2001	-56,32
2002	-18,4
2003	-4,83
2004	-9,98
2005	-17,47
2006	4,07
2007	26,07
2008	-5,76
2009	23,73
2010	-3,42
2011	56,49
2012	-45,08
2013	53,22
2014	-11,38
2015	28,41
2016	-41,81
2017	50,41
2018	58,37
2019	83,18
2020	-21,21
2021	45,26
2022	-17
2023	23,26
2024	63,05
2025	-3,42
2026	61,18
2027	-79,72
2028	15,3
2029	11,56
2030	-12,79
2031	9,22
2032	-9,04
2033	8,75
2034	2,19
2035	-2,49
2036	19,98
2037	22,79
2038	-19,34
2039	2,66
2040	-121,85
2041	6,88
2042	0,32
2043	54,15
2044	24,2
2045	48,07
2046	48,07
2047	48,07
