Data from Subt2_15-46-30-584.txt Node
Date: Wed Apr 21 15:46:30 CEST 2021
User: au643642
Spectrometer: FLMS05507
Trigger mode: 0
Integration Time (sec): 2,300000E-2
Scans to average: 5
Electric dark correction enabled: true
Nonlinearity correction enabled: false
Boxcar width: 0
XAxis mode: Pixels
Number of Pixels in Spectrum: 2048
>>>>>Begin Spectral Data<<<<<
0	9,65
1	9,65
2	9,65
3	58,81
4	48,51
5	11,06
6	29,78
7	-13,75
8	-48,86
9	26,51
10	-11,88
11	-56,35
12	-10,94
13	4,51
14	90,64
15	11,53
16	-23,11
17	5,44
18	-1,11
19	-38,56
20	25,1
21	-2,52
22	-42,77
23	-69,92
24	34,93
25	-48,39
26	-24,05
27	114,04
28	3,57
29	17,14
30	-12,35
31	-34,35
32	25,1
33	13,87
34	12
35	-7,2
36	12,93
37	28,85
38	0,29
39	69,1
40	-8,13
41	-31,54
42	17,61
43	13,4
44	55,53
45	12,46
46	20,42
47	44,76
48	-73,2
49	19,02
50	69,57
51	-28,26
52	-26,39
53	-11,88
54	37,74
55	13,87
56	-62,43
57	-18,43
58	-16,09
59	72,85
60	48,51
61	-32,01
62	0,29
63	-1,11
64	20,42
65	-28,26
66	35,4
67	-122,35
68	-57,75
69	35,87
70	46,17
71	43,36
72	56,47
73	-31,07
74	-40,9
75	-34,82
76	64,89
77	22,29
78	26,97
79	1,7
80	17,61
81	-33,41
82	52,72
83	57,87
84	78
85	24,17
86	51,32
87	18,08
88	30,72
89	14,34
90	27,44
91	53,66
92	108,43
93	40,08
94	-32,94
95	46,17
96	-45,11
97	51,78
98	29,32
99	16,21
100	-49,79
101	-27,79
102	-2,98
103	5,91
104	-42,77
105	-6,73
106	24,17
107	-54,94
108	-8,6
109	33,53
110	-15,15
111	55,53
112	-12,35
113	-2,52
114	-26,86
115	70,51
116	3,1
117	77,06
118	10,12
119	6,85
120	2,63
121	5,91
122	-21,24
123	79,4
124	7,78
125	63,96
126	32,59
127	39,15
128	3,1
129	-3,92
130	54,12
131	18,55
132	-28,73
133	0,29
134	-38,56
135	-85,84
136	-6,73
137	46,17
138	36,34
139	-29,2
140	34,93
141	-31,07
142	67,7
143	-19,37
144	39,15
145	19,48
146	-19,84
147	-48,86
148	37,27
149	40,55
150	22,29
151	15,74
152	-67,58
153	20,89
154	8,72
155	4,97
156	-12,35
157	41,02
158	67,7
159	94,85
160	0,29
161	50,38
162	-105,03
163	53,19
164	-25,92
165	34,46
166	54,12
167	-78,35
168	16,21
169	48,51
170	24,17
171	-56,82
172	9,19
173	-56,35
174	4,97
175	55,53
176	-18,43
177	-11,88
178	-32,47
179	59,27
180	-9,54
181	-29,67
182	24,63
183	-34,35
184	12,46
185	-6,26
186	48,98
187	-0,18
188	-46,99
189	-1,11
190	56,47
191	-2,98
192	2,16
193	-41,37
194	41,95
195	29,78
196	-29,2
197	-0,64
198	-34,35
199	53,19
200	9,19
201	-17,96
202	78,93
203	-23,58
204	-24,52
205	50,85
206	-10,47
207	-5,79
208	-60,09
209	-30,6
210	6,85
211	-31,54
212	-48,39
213	4,51
214	51,78
215	8,72
216	1,7
217	-48,39
218	38,21
219	47,1
220	63,02
221	-11,41
222	108,89
223	36,8
224	-13,75
225	5,44
226	-30,13
227	5,44
228	33,53
229	56,93
230	6,85
231	19,02
232	3,1
233	40,55
234	52,25
235	49,91
236	53,19
237	16,68
238	10,12
239	66,3
240	-26,86
241	24,63
242	-34,82
243	15,74
244	-1,11
245	-1,11
246	44,29
247	-12,81
248	10,59
249	78,93
250	10,12
251	-7,67
252	0,29
253	-41,84
254	10,59
255	-15,15
256	-41,84
257	-16,09
258	25,57
259	10,12
260	61,15
261	-55,41
262	57,4
263	-34,35
264	-8,6
265	63,02
266	24,63
267	14,8
268	70,51
269	-3,45
270	-29,67
271	-24,52
272	-38,09
273	10,59
274	39,15
275	-5,32
276	-4,39
277	11,53
278	80,34
279	-39,96
280	30,25
281	41,49
282	6,85
283	-23,11
284	-37,16
285	53,19
286	-42,31
287	5,44
288	0,76
289	-70,39
290	-21,71
291	19,48
292	15,27
293	32,12
294	-0,18
295	16,68
296	26,04
297	51,32
298	-15,15
299	114,51
300	-56,82
301	-32,94
302	27,91
303	79,87
304	-28,26
305	-23,58
306	7,31
307	-14,69
308	15,27
309	-23,11
310	35,4
311	-23,58
312	-62,9
313	-8,6
314	24,63
315	74,25
316	12,93
317	-52,14
318	-40,9
319	21,36
320	34,46
321	-24,99
322	-6,26
323	-31,07
324	40,55
325	80,34
326	-16,09
327	-15,15
328	98,6
329	18,08
330	34,93
331	-7,2
332	79,87
333	-17,5
334	-41,84
335	-23,58
336	68,64
337	-32,47
338	-40,43
339	-38,56
340	-4,86
341	25,1
342	-5,32
343	-46,99
344	-25,92
345	39,15
346	49,44
347	5,91
348	-18,9
349	-22,18
350	-35,28
351	-6,26
352	22,76
353	78,47
354	-32,94
355	-91,92
356	12,93
357	-75,54
358	-2,98
359	26,97
360	-10,47
361	21,83
362	17,14
363	8,25
364	97,66
365	-8,6
366	-70,86
367	-7,2
368	-23,58
369	10,12
370	-24,52
371	-10,01
372	1,7
373	39,61
374	31,66
375	-43,71
376	8,72
377	84,55
378	60,68
379	54,59
380	28,85
381	-40,43
382	55,53
383	38,68
384	-20,3
385	46,64
386	-19,84
387	91,11
388	-22,18
389	37,27
390	-15,15
391	-24,99
392	-29,67
393	-20,3
394	39,15
395	28,38
396	81,74
397	29,32
398	19,48
399	-19,37
400	34,93
401	-20,77
402	4,97
403	56,93
404	-46,05
405	69,57
406	-1,58
407	54,59
408	-20,3
409	35,4
410	-37,16
411	48,51
412	8,72
413	39,15
414	101,4
415	19,95
416	33,06
417	-17,03
418	-38,56
419	-6,26
420	-0,64
421	-23,58
422	53,19
423	27,91
424	55,06
425	-17,5
426	26,04
427	54,12
428	59,27
429	-47,45
430	-74,14
431	43,36
432	-32,01
433	-16,56
434	-5,32
435	35,87
436	52,72
437	29,78
438	0,29
439	-18,43
440	-0,64
441	-20,77
442	-17,5
443	122,47
444	-10,94
445	-38,09
446	15,74
447	-35,28
448	-59,16
449	70,04
450	74,72
451	54,59
452	-7,67
453	41,02
454	8,72
455	3,1
456	40,08
457	3,1
458	-4,86
459	-11,88
460	-44,18
461	-49,79
462	65,83
463	53,66
464	81,28
465	4,04
466	66,76
467	109,36
468	74,72
469	-55,41
470	-8,13
471	-35,75
472	8,72
473	-7,2
474	-4,86
475	-11,41
476	-9,54
477	-3,45
478	40,08
479	71,91
480	61,15
481	64,89
482	111,7
483	104,68
484	117,79
485	179,11
486	65,36
487	82,21
488	77,53
489	75,66
490	147,28
491	98,6
492	123,87
493	112,17
494	122
495	126,21
496	178,64
497	118,26
498	84,55
499	165,07
500	125,28
501	128,09
502	158,04
503	104,21
504	144,47
505	82,68
506	120,13
507	144,94
508	162,73
509	109,36
510	167,87
511	116,85
512	155,7
513	153,83
514	90,17
515	128,55
516	147,75
517	130,43
518	125,28
519	142,13
520	148,21
521	112,64
522	138,85
523	46,17
524	70,51
525	92,98
526	95,79
527	143,53
528	117,79
529	66,76
530	87,36
531	110,77
532	46,17
533	132,77
534	113,57
535	16,68
536	61,15
537	32,59
538	81,74
539	8,25
540	55,53
541	97,19
542	78,47
543	82,68
544	78
545	-50,73
546	-189,29
547	-183,67
548	-226,74
549	-97,54
550	17,14
551	53,19
552	69,1
553	40,55
554	27,91
555	-16,56
556	121,53
557	86,42
558	44,29
559	25,57
560	61,15
561	97,66
562	23,7
563	97,66
564	34,46
565	7,31
566	62,08
567	72,85
568	49,91
569	67,7
570	67,23
571	53,19
572	-23,11
573	9,19
574	99,06
575	36,34
576	65,36
577	16,21
578	49,91
579	-31,54
580	19,48
581	12,46
582	18,55
583	-76,01
584	-14,22
585	-15,15
586	-12,81
587	4,97
588	-3,92
589	10,12
590	38,68
591	-20,77
592	-46,99
593	-5,32
594	-53,54
595	-14,22
596	-47,92
597	-31,54
598	-60,09
599	-17,5
600	18,08
601	-54,01
602	-52,14
603	41,02
604	6,85
605	-36,69
606	28,38
607	26,97
608	-4,39
609	-64,31
610	-3,92
611	9,65
612	-19,84
613	-35,75
614	-79,75
615	-4,86
616	-64,77
617	-70,39
618	-168,23
619	7,78
620	-32,01
621	-42,77
622	-45,11
623	-10,01
624	-40,43
625	20,89
626	-55,41
627	47,1
628	-36,22
629	-10,94
630	11,53
631	3,57
632	4,51
633	25,1
634	22,76
635	-3,92
636	-14,69
637	56
638	3,57
639	-8,6
640	-40,9
641	-42,77
642	-6,73
643	73,79
644	0,29
645	-4,39
646	9,65
647	80,81
648	31,19
649	-41,84
650	-23,58
651	-10,01
652	-122,82
653	-30,6
654	8,72
655	53,66
656	80,81
657	-28,26
658	-54,94
659	34,93
660	26,04
661	-69,92
662	19,02
663	-105,5
664	-120,95
665	-143,88
666	-50,73
667	-78,35
668	-71,8
669	-112,52
670	-2,05
671	-33,88
672	-17,5
673	-2,98
674	19,95
675	-42,77
676	11,06
677	37,74
678	126,21
679	30,25
680	81,28
681	54,12
682	184,26
683	95,32
684	94,38
685	131,36
686	167,87
687	150,55
688	170,68
689	128,55
690	166,47
691	166,47
692	190,34
693	226,86
694	190,34
695	294,73
696	219,37
697	130,89
698	173,02
699	207,66
700	274,6
701	211,88
702	221,24
703	247,92
704	193,15
705	217,03
706	279,75
707	238,09
708	315,8
709	290,05
710	256,35
711	276,94
712	335,93
713	222,18
714	325,63
715	329,84
716	349,5
717	266,18
718	258,22
719	340,14
720	260,09
721	320,48
722	272,73
723	281,16
724	320,48
725	317,67
726	281,62
727	298,94
728	246,99
729	332,18
730	324,22
731	264,77
732	328,9
733	353,25
734	307,84
735	369,16
736	386,48
737	298,01
738	315,33
739	321,41
740	315,8
741	256,35
742	315,8
743	368,22
744	360,27
745	380,4
746	268,52
747	384,61
748	282,09
749	325,63
750	379,46
751	320,01
752	386,48
753	418,31
754	314,86
755	422,99
756	325,63
757	395,84
758	305,5
759	290,52
760	383,2
761	362,61
762	340,61
763	376,18
764	334,05
765	393,97
766	366,82
767	379,93
768	318,61
769	424,87
770	312,52
771	414,57
772	353,25
773	247,45
774	389,29
775	400,99
776	400,99
777	309,71
778	367,76
779	348,56
780	475,89
781	370,1
782	386,01
783	354,65
784	392,57
785	327,03
786	370,1
787	285,37
788	377,12
789	340,61
790	354,18
791	311,58
792	284,43
793	304,56
794	286,77
795	323,29
796	362,14
797	358,39
798	444,53
799	272,26
800	339,2
801	298,48
802	299,88
803	269,92
804	349,03
805	237,15
806	277,88
807	353,71
808	360,74
809	327,97
810	357,93
811	268,05
812	345,76
813	323,75
814	387,42
815	377,12
816	351,37
817	366,35
818	361,67
819	290,52
820	354,18
821	370,57
822	319,54
823	372,44
824	422,53
825	320,95
826	366,82
827	346,22
828	354,18
829	375,25
830	396,78
831	311,12
832	424,4
833	367,76
834	336,86
835	379,46
836	336,39
837	316,73
838	310,18
839	354,18
840	372,91
841	370,57
842	316,26
843	342,01
844	333,12
845	313,92
846	389,76
847	351,37
848	296,6
849	328,9
850	352,31
851	372,44
852	324,69
853	342,48
854	314,86
855	234,81
856	336,39
857	280,69
858	372,91
859	340,14
860	313,46
861	346,22
862	423,93
863	289,58
864	349,5
865	296,6
866	255,41
867	317,67
868	322,82
869	326,1
870	312,05
871	318,14
872	320,95
873	381,8
874	235,28
875	269,92
876	257,75
877	294,73
878	324,22
879	275,54
880	307,37
881	298,48
882	332,18
883	248,39
884	284,9
885	323,29
886	254,94
887	277,88
888	196,9
889	293,8
890	304,09
891	301,75
892	256,35
893	278,82
894	252,13
895	227,79
896	259,62
897	278,35
898	295,2
899	254,01
900	236,69
901	314,39
902	215,62
903	233,41
904	254,01
905	289,11
906	246,52
907	256,82
908	272,26
909	282,09
910	313,46
911	326,1
912	248,86
913	286,31
914	286,31
915	290,99
916	266,65
917	286,77
918	309,24
919	293,8
920	311,58
921	317,2
922	243,71
923	303,63
924	251,67
925	329,84
926	284,9
927	296,14
928	293,8
929	228,26
930	239,5
931	325,63
932	213,75
933	260,56
934	312,99
935	298,48
936	301,75
937	228,26
938	281,62
939	263,37
940	269,92
941	259,16
942	300,82
943	253,07
944	189,41
945	190,34
946	278,82
947	261,03
948	224,52
949	305,5
950	187,54
951	281,16
952	164,13
953	193,62
954	265,24
955	263,37
956	208,13
957	205,32
958	231,07
959	234,35
960	162,73
961	151,49
962	257,75
963	149,62
964	224,52
965	215,15
966	200,64
967	248,86
968	193,15
969	188,47
970	219,37
971	273,67
972	152,9
973	193,15
974	197,37
975	255,88
976	176,77
977	203,92
978	223,11
979	185,19
980	251,2
981	176,77
982	175,36
983	162,73
984	202,05
985	144
986	178,64
987	206,26
988	184,73
989	98,13
990	222,18
991	186,13
992	265,24
993	194,56
994	144
995	188
996	136,04
997	173,02
998	172,56
999	127,15
1000	221,71
1001	101,87
1002	162,26
1003	228,73
1004	247,45
1005	115,45
1006	94,38
1007	168,81
1008	148,68
1009	149,15
1010	116,38
1011	129,96
1012	216,09
1013	190,34
1014	183,79
1015	223,11
1016	139,32
1017	155,7
1018	141,66
1019	141,19
1020	232,47
1021	163,19
1022	158,04
1023	188,47
1024	255,88
1025	153,83
1026	145,41
1027	114,04
1028	158,51
1029	169,28
1030	192,22
1031	129,49
1032	132,77
1033	116,85
1034	117,32
1035	122,47
1036	63,96
1037	139,79
1038	107,96
1039	91,57
1040	202,98
1041	129,96
1042	175,83
1043	154,3
1044	128,09
1045	142,13
1046	184,26
1047	161,32
1048	120,6
1049	122
1050	155,24
1051	97,66
1052	163,19
1053	118,72
1054	83,15
1055	34,93
1056	105,62
1057	151,49
1058	220,3
1059	136,51
1060	103,28
1061	131,36
1062	165,07
1063	156,64
1064	144
1065	166,47
1066	52,25
1067	20,42
1068	105,62
1069	92,98
1070	165,53
1071	106,08
1072	103,28
1073	136,98
1074	110,3
1075	129,96
1076	107,02
1077	142,13
1078	70,98
1079	112,17
1080	114,04
1081	82,21
1082	51,78
1083	76,59
1084	123,87
1085	144
1086	68,64
1087	50,85
1088	74,25
1089	92,51
1090	106,55
1091	102,34
1092	95,32
1093	81,74
1094	94,38
1095	138,85
1096	89,23
1097	121,06
1098	47,57
1099	100,94
1100	64,42
1101	30,25
1102	102,81
1103	98,13
1104	125,75
1105	112,17
1106	177,24
1107	189,41
1108	76,13
1109	94,38
1110	158,51
1111	92,04
1112	134,17
1113	72,85
1114	96,25
1115	78,93
1116	59,27
1117	-11,88
1118	124,34
1119	82,68
1120	125,75
1121	42,42
1122	97,66
1123	70,51
1124	44,76
1125	78,47
1126	46,64
1127	126,21
1128	57,4
1129	-0,18
1130	139,79
1131	101,4
1132	97,19
1133	112,17
1134	26,51
1135	20,89
1136	71,44
1137	18,55
1138	39,61
1139	35,87
1140	89,23
1141	57,87
1142	96,25
1143	87,36
1144	-10,47
1145	57,87
1146	114,51
1147	87,36
1148	104,21
1149	0,76
1150	44,29
1151	79,4
1152	45,23
1153	36,34
1154	121,53
1155	8,72
1156	94,38
1157	102,34
1158	107,96
1159	14,34
1160	9,19
1161	130,89
1162	58,34
1163	54,59
1164	183,79
1165	54,12
1166	56,93
1167	75,66
1168	39,15
1169	52,72
1170	43,36
1171	-2,52
1172	36,34
1173	117,32
1174	70,51
1175	133,23
1176	-4,86
1177	52,25
1178	121,53
1179	56,47
1180	75,66
1181	106,08
1182	59,27
1183	81,74
1184	59,74
1185	52,72
1186	95,79
1187	35,87
1188	47,1
1189	11,53
1190	104,68
1191	48,98
1192	4,97
1193	-30,6
1194	31,19
1195	20,42
1196	72,85
1197	87,36
1198	117,32
1199	111,7
1200	84,55
1201	78,93
1202	44,76
1203	58,34
1204	-24,52
1205	-27,79
1206	23,7
1207	113,11
1208	32,59
1209	48,98
1210	15,74
1211	49,44
1212	34,93
1213	44,76
1214	75,66
1215	62,08
1216	-5,79
1217	71,44
1218	45,23
1219	75,66
1220	11,53
1221	87,36
1222	-1,11
1223	114,98
1224	53,66
1225	33,53
1226	64,89
1227	48,98
1228	-10,47
1229	33,53
1230	28,38
1231	62,55
1232	41,95
1233	48,51
1234	56
1235	32,59
1236	36,34
1237	70,04
1238	29,78
1239	56,47
1240	18,55
1241	70,98
1242	26,97
1243	-1,11
1244	93,45
1245	62,08
1246	84,08
1247	71,91
1248	38,68
1249	94,38
1250	41,02
1251	76,13
1252	128,09
1253	40,08
1254	47,57
1255	34
1256	-17,96
1257	39,15
1258	26,97
1259	35,4
1260	118,72
1261	65,83
1262	-68,52
1263	82,21
1264	4,04
1265	-0,18
1266	31,66
1267	13,4
1268	60,68
1269	-4,86
1270	70,98
1271	-8,6
1272	119,66
1273	26,97
1274	2,63
1275	30,72
1276	19,95
1277	17,14
1278	7,31
1279	27,91
1280	49,91
1281	36,34
1282	73,79
1283	-24,05
1284	45,7
1285	68,17
1286	51,32
1287	24,17
1288	-11,41
1289	27,91
1290	-39,5
1291	33,53
1292	-23,11
1293	23,23
1294	59,74
1295	0,76
1296	65,36
1297	-38,56
1298	30,25
1299	50,85
1300	45,7
1301	30,25
1302	26,97
1303	19,48
1304	23,23
1305	43,83
1306	56
1307	58,81
1308	-15,62
1309	20,42
1310	0,76
1311	-7,67
1312	58,81
1313	61,61
1314	34,93
1315	-58,22
1316	37,27
1317	37,74
1318	19,48
1319	-17,03
1320	35,87
1321	46,17
1322	56,93
1323	-19,84
1324	7,78
1325	24,17
1326	-50,26
1327	6,38
1328	53,19
1329	-8,6
1330	-54,01
1331	2,63
1332	-42,31
1333	-11,88
1334	10,12
1335	12
1336	20,89
1337	-18,9
1338	-32,01
1339	0,76
1340	42,89
1341	-20,77
1342	-10,47
1343	62,08
1344	-21,71
1345	9,65
1346	-90,05
1347	-34,82
1348	-51,2
1349	-24,99
1350	-8,6
1351	-26,86
1352	-1,58
1353	-50,73
1354	-16,09
1355	-30,13
1356	9,19
1357	-19,84
1358	-85,37
1359	-34,82
1360	-13,28
1361	-23,11
1362	56
1363	6,38
1364	-27,33
1365	-26,86
1366	-29,2
1367	2,16
1368	-9,07
1369	5,44
1370	-76,01
1371	-19,37
1372	11,06
1373	54,12
1374	-61,03
1375	-31,07
1376	-58,69
1377	-63,37
1378	24,17
1379	-46,99
1380	-36,69
1381	-33,88
1382	-27,33
1383	-53,07
1384	-60,09
1385	17,61
1386	-52,14
1387	-23,11
1388	-1,11
1389	-8,13
1390	12
1391	38,21
1392	-50,26
1393	-42,31
1394	-37,62
1395	-46,05
1396	-36,22
1397	-44,18
1398	-45,58
1399	-34,35
1400	26,97
1401	38,68
1402	-6,26
1403	-58,22
1404	15,74
1405	37,74
1406	29,78
1407	-26,39
1408	-3,92
1409	6,85
1410	-9,54
1411	-66,65
1412	-49,33
1413	3,57
1414	-1,11
1415	-41,37
1416	-4,86
1417	-3,45
1418	44,29
1419	-61,03
1420	-13,75
1421	12,93
1422	16,68
1423	7,31
1424	15,74
1425	11,06
1426	-21,24
1427	14,8
1428	41,95
1429	-10,47
1430	51,78
1431	68,64
1432	12,93
1433	-96,61
1434	-51,67
1435	50,38
1436	18,55
1437	-34,35
1438	-31,07
1439	37,74
1440	-31,54
1441	42,89
1442	96,25
1443	-45,58
1444	0,76
1445	-19,37
1446	-20,77
1447	12
1448	-0,64
1449	-13,28
1450	-26,39
1451	8,72
1452	-70,86
1453	-64,31
1454	-14,22
1455	-11,88
1456	19,95
1457	-13,28
1458	30,72
1459	68,64
1460	-20,77
1461	51,78
1462	-45,11
1463	-16,09
1464	-42,77
1465	-13,28
1466	-10,47
1467	30,25
1468	-58,69
1469	-12,35
1470	-11,41
1471	65,36
1472	-10,47
1473	19,48
1474	-24,05
1475	-12,81
1476	1,23
1477	30,72
1478	11,06
1479	8,25
1480	-45,58
1481	-35,75
1482	66,3
1483	-1,58
1484	-33,41
1485	-76,95
1486	26,97
1487	-45,11
1488	6,38
1489	23,23
1490	-35,28
1491	4,51
1492	45,23
1493	23,7
1494	-64,77
1495	-6,73
1496	-18,43
1497	31,19
1498	121,06
1499	81,74
1500	-47,45
1501	74,25
1502	-52,14
1503	-9,54
1504	57,87
1505	-4,86
1506	-7,2
1507	-20,77
1508	-29,67
1509	-10,94
1510	-19,84
1511	-12,35
1512	72,38
1513	-0,18
1514	-15,62
1515	-0,18
1516	-6,73
1517	-10,01
1518	-38,56
1519	41,49
1520	-17,5
1521	-4,86
1522	-98,48
1523	-37,62
1524	44,76
1525	-3,45
1526	-1,58
1527	-5,32
1528	6,85
1529	-21,71
1530	98,6
1531	16,68
1532	-41,37
1533	19,02
1534	-27,33
1535	21,36
1536	21,83
1537	-6,26
1538	71,91
1539	-24,52
1540	-53,54
1541	-19,37
1542	-38,56
1543	22,29
1544	31,19
1545	61,15
1546	30,72
1547	-88,65
1548	-26,86
1549	-30,6
1550	-66,65
1551	-23,11
1552	-16,09
1553	24,63
1554	-9,54
1555	16,68
1556	-28,26
1557	42,89
1558	3,57
1559	28,38
1560	47,57
1561	-12,81
1562	-6,26
1563	46,17
1564	66,3
1565	-19,84
1566	-11,41
1567	92,04
1568	26,97
1569	-8,6
1570	15,74
1571	-15,62
1572	-49,33
1573	-44,18
1574	20,89
1575	-27,79
1576	35,87
1577	8,25
1578	52,72
1579	37,27
1580	-17,03
1581	92,98
1582	25,1
1583	-104,56
1584	-32,01
1585	-33,41
1586	62,08
1587	-5,32
1588	-39,96
1589	-55,88
1590	44,76
1591	-2,98
1592	11,53
1593	-20,3
1594	-24,99
1595	44,76
1596	37,27
1597	45,7
1598	26,51
1599	-8,13
1600	40,08
1601	13,4
1602	-58,22
1603	86,89
1604	27,91
1605	29,32
1606	16,21
1607	-45,58
1608	44,76
1609	27,44
1610	-38,56
1611	25,1
1612	17,14
1613	42,42
1614	-0,18
1615	35,87
1616	-2,52
1617	13,4
1618	1,23
1619	65,83
1620	26,51
1621	-21,24
1622	17,61
1623	28,85
1624	61,15
1625	48,51
1626	31,19
1627	-5,32
1628	49,91
1629	24,63
1630	19,95
1631	-31,07
1632	31,19
1633	10,12
1634	41,02
1635	24,63
1636	17,61
1637	1,7
1638	36,34
1639	97,66
1640	14,8
1641	-2,05
1642	0,76
1643	1,7
1644	-39,03
1645	-77,41
1646	32,59
1647	31,66
1648	-33,41
1649	-93,8
1650	89,23
1651	-9,54
1652	37,27
1653	-31,54
1654	-21,71
1655	12,46
1656	-15,15
1657	-44,18
1658	-29,2
1659	9,19
1660	45,23
1661	-63,37
1662	-48,86
1663	40,08
1664	-12,81
1665	25,1
1666	21,83
1667	5,91
1668	21,36
1669	8,72
1670	-2,98
1671	-24,52
1672	47,1
1673	-72,73
1674	38,21
1675	24,17
1676	34,46
1677	-3,45
1678	-44,65
1679	-31,07
1680	90,17
1681	41,95
1682	57,4
1683	7,78
1684	52,25
1685	31,19
1686	7,31
1687	3,57
1688	-7,2
1689	-4,86
1690	-22,64
1691	-11,41
1692	29,32
1693	-63,84
1694	-3,92
1695	34,93
1696	-2,98
1697	19,02
1698	79,87
1699	36,8
1700	-39,03
1701	-24,52
1702	-16,09
1703	5,91
1704	-21,24
1705	100,94
1706	-16,09
1707	35,4
1708	2,16
1709	-33,88
1710	-8,6
1711	1,7
1712	-31,07
1713	-42,77
1714	4,04
1715	42,89
1716	-37,62
1717	-66,65
1718	16,68
1719	17,14
1720	-31,07
1721	7,78
1722	2,63
1723	-24,05
1724	4,97
1725	12,93
1726	13,4
1727	-36,69
1728	5,91
1729	-64,31
1730	85,49
1731	-17,96
1732	-48,86
1733	-74,6
1734	44,76
1735	13,4
1736	38,68
1737	-3,92
1738	41,49
1739	0,29
1740	56
1741	76,13
1742	31,66
1743	13,4
1744	21,83
1745	33,06
1746	-75,07
1747	15,74
1748	-34,82
1749	-23,11
1750	10,59
1751	6,38
1752	26,51
1753	48,04
1754	-5,32
1755	14,8
1756	58,81
1757	39,61
1758	64,42
1759	28,85
1760	-71,33
1761	-8,6
1762	-1,11
1763	76,59
1764	-16,56
1765	4,97
1766	-17,03
1767	-61,5
1768	40,55
1769	4,04
1770	-10,01
1771	47,1
1772	86,42
1773	26,04
1774	18,55
1775	-25,45
1776	-23,11
1777	27,44
1778	4,04
1779	20,42
1780	-8,6
1781	41,02
1782	-8,13
1783	-44,18
1784	64,42
1785	41,02
1786	20,89
1787	-18,43
1788	-48,86
1789	-18,9
1790	-5,79
1791	-46,52
1792	10,12
1793	0,76
1794	24,17
1795	-11,88
1796	6,85
1797	12,46
1798	-52,14
1799	-82,09
1800	-40,9
1801	-26,86
1802	56,47
1803	9,65
1804	-27,79
1805	-34,82
1806	-56,35
1807	-48,39
1808	5,91
1809	2,16
1810	35,4
1811	-46,52
1812	46,17
1813	1,23
1814	29,78
1815	11,06
1816	-18,43
1817	-54,94
1818	-28,73
1819	-1,58
1820	-8,6
1821	33,53
1822	-85,37
1823	-15,15
1824	53,19
1825	55,06
1826	-17,03
1827	82,68
1828	24,63
1829	-9,54
1830	-14,69
1831	16,21
1832	68,64
1833	20,42
1834	-18,9
1835	64,89
1836	-6,26
1837	39,61
1838	-0,18
1839	69,57
1840	14,34
1841	70,04
1842	-15,62
1843	-34,35
1844	-13,75
1845	-12,35
1846	21,36
1847	-6,73
1848	-17,96
1849	-5,32
1850	10,59
1851	15,74
1852	0,76
1853	9,19
1854	-29,67
1855	14,34
1856	15,27
1857	54,12
1858	24,63
1859	84,55
1860	-59,63
1861	21,36
1862	35,4
1863	4,51
1864	-30,13
1865	9,19
1866	35,87
1867	-10,94
1868	2,16
1869	-68,05
1870	18,55
1871	47,1
1872	-12,81
1873	18,55
1874	-3,45
1875	-76,48
1876	-3,45
1877	-38,09
1878	-20,3
1879	-14,69
1880	52,25
1881	100,94
1882	53,66
1883	6,85
1884	19,02
1885	47,1
1886	15,74
1887	-15,15
1888	47,1
1889	1,23
1890	-31,54
1891	34,46
1892	-8,13
1893	67,23
1894	41,95
1895	28,85
1896	7,31
1897	2,63
1898	-14,69
1899	46,64
1900	-64,77
1901	-73,2
1902	-9,07
1903	-30,6
1904	18,55
1905	-1,58
1906	46,17
1907	-41,37
1908	8,72
1909	-46,52
1910	-53,54
1911	-11,88
1912	19,95
1913	81,74
1914	-29,2
1915	20,89
1916	-26,39
1917	60,21
1918	42,89
1919	6,38
1920	45,23
1921	-78,82
1922	0,76
1923	28,38
1924	8,72
1925	20,89
1926	-34,82
1927	-30,13
1928	-22,64
1929	6,38
1930	-11,41
1931	-19,84
1932	47,57
1933	-33,88
1934	26,97
1935	-24,99
1936	7,78
1937	-30,13
1938	49,91
1939	-18,43
1940	-54,01
1941	56,93
1942	21,36
1943	29,78
1944	-69,46
1945	37,27
1946	-24,05
1947	40,55
1948	28,38
1949	14,34
1950	-2,52
1951	86,89
1952	57,87
1953	12,93
1954	-10,47
1955	-20,77
1956	-20,77
1957	-35,28
1958	-13,75
1959	27,91
1960	21,36
1961	38,21
1962	28,38
1963	33,06
1964	60,21
1965	23,7
1966	-1,11
1967	-69,46
1968	97,66
1969	-37,16
1970	4,04
1971	-24,52
1972	12
1973	49,91
1974	4,04
1975	-5,32
1976	16,68
1977	37,27
1978	9,19
1979	-48,39
1980	14,34
1981	5,44
1982	-31,54
1983	18,08
1984	66,76
1985	78
1986	-66,18
1987	47,57
1988	24,63
1989	-68,99
1990	-1,11
1991	-68,05
1992	-4,39
1993	36,8
1994	-6,26
1995	34,46
1996	-10,01
1997	32,12
1998	-18,43
1999	-6,26
2000	-2,52
2001	-47,45
2002	-14,69
2003	2,63
2004	3,57
2005	-10,47
2006	-14,69
2007	-2,98
2008	7,31
2009	44,29
2010	1,7
2011	66,3
2012	-25,45
2013	69,1
2014	-22,64
2015	19,02
2016	-30,13
2017	44,29
2018	48,51
2019	85,02
2020	-1,58
2021	-5,79
2022	0,76
2023	34,46
2024	46,64
2025	-26,86
2026	63,02
2027	-46,52
2028	46,17
2029	-38,56
2030	-6,73
2031	35,4
2032	5,44
2033	26,97
2034	5,91
2035	-9,54
2036	34,46
2037	31,19
2038	-32,94
2039	55,53
2040	-100,82
2041	30,72
2042	14,8
2043	19,48
2044	12,93
2045	55,53
2046	55,53
2047	55,53
