Data from Subt2_15-45-16-296.txt Node
Date: Wed Apr 21 15:45:16 CEST 2021
User: au643642
Spectrometer: FLMS05507
Trigger mode: 0
Integration Time (sec): 2,300000E-2
Scans to average: 5
Electric dark correction enabled: true
Nonlinearity correction enabled: false
Boxcar width: 0
XAxis mode: Pixels
Number of Pixels in Spectrum: 2048
>>>>>Begin Spectral Data<<<<<
0	56,44
1	56,44
2	56,44
3	85,93
4	91,54
5	-3,95
6	61,12
7	-8,16
8	-78,38
9	52,69
10	5,41
11	-61,06
12	-43,27
13	7,75
14	99,5
15	25,07
16	-3,95
17	0,73
18	-25,95
19	-66,21
20	38,65
21	11,97
22	-47,95
23	-62,46
24	19,92
25	-10,97
26	-24,55
27	66,27
28	28,35
29	19,92
30	-27,82
31	-19,87
32	8,69
33	-3,48
34	-10,97
35	-22,21
36	4,01
37	30,69
38	1,2
39	41,46
40	-24,08
41	-39,06
42	5,88
43	-1,61
44	62,05
45	-2,08
46	13,37
47	38,65
48	-47,48
49	23,67
50	42,86
51	-23,14
52	-29,7
53	-27,82
54	28,82
55	-24,55
56	-17,52
57	4,48
58	-28,29
59	97,63
60	40,05
61	-31,1
62	-28,76
63	-10,5
64	-17,99
65	-20,8
66	15,71
67	-98,98
68	-72,29
69	52,22
70	82,65
71	4,48
72	39,58
73	-6,76
74	-13,31
75	-88,68
76	89,2
77	28,35
78	5,41
79	-0,2
80	-10,5
81	-26,42
82	68,14
83	45,67
84	51,29
85	23,2
86	40,99
87	9,63
88	9,16
89	-4,42
90	-2,08
91	39,12
92	84,05
93	35,37
94	-48,42
95	43,33
96	-23,61
97	47,54
98	46,14
99	-37,19
100	-45,61
101	-54,04
102	-13,78
103	-25,48
104	-55,44
105	-0,2
106	23,2
107	-43,27
108	-18,93
109	4,01
110	-3,01
111	57,37
112	-22,21
113	34,44
114	-41,87
115	41,92
116	33,97
117	64,86
118	5,41
119	9,63
120	30,69
121	16,18
122	8,69
123	89,67
124	-41,4
125	73,29
126	32,09
127	28,35
128	-16,12
129	-35,78
130	57,84
131	18,99
132	-27,36
133	-10,04
134	-18,93
135	-88,21
136	2,6
137	27,41
138	64,86
139	14,77
140	37,24
141	-3,01
142	75,16
143	-86,8
144	55,97
145	23,2
146	-2,55
147	-4,89
148	48,95
149	16,18
150	-14,72
151	24,6
152	-57,78
153	33,03
154	25,07
155	-37,19
156	-21,27
157	6,35
158	40,52
159	78,91
160	31,16
161	65,33
162	-60,59
163	31,16
164	-53,1
165	50,82
166	61,59
167	-96,17
168	14,77
169	40,05
170	19,92
171	-80,72
172	7,75
173	-48,89
174	-15,18
175	63,46
176	-5,35
177	-34,84
178	-57,31
179	37,24
180	-40,46
181	-61,99
182	16,18
183	-61,53
184	11,03
185	12,9
186	76,1
187	-20,8
188	-39,99
189	23,2
190	57,37
191	11,03
192	9,16
193	-26,42
194	14,31
195	28,35
196	-66,68
197	-28,76
198	-36,25
199	31,63
200	2,6
201	-30,63
202	61,59
203	-45,14
204	-40,93
205	41,46
206	15,71
207	13,37
208	-65,74
209	-38,59
210	-14,72
211	-27,82
212	-13,78
213	-27,82
214	31,63
215	15,24
216	21,8
217	-27,82
218	34,44
219	13,84
220	20,39
221	-8,63
222	77,03
223	37,24
224	-26,42
225	-23,61
226	-8,63
227	-9,1
228	33,5
229	41,92
230	18,99
231	-12,38
232	21,33
233	47,07
234	77,03
235	56,9
236	21,8
237	43,8
238	27,88
239	46,14
240	-62,46
241	26,48
242	-17,52
243	22,26
244	23,67
245	26,01
246	68,14
247	6,82
248	21,33
249	66,73
250	5,41
251	-13,31
252	12,9
253	-26,42
254	25,07
255	-30,16
256	-42,8
257	-8,63
258	60,65
259	19,92
260	68,14
261	-51,7
262	-8,16
263	-16,59
264	-50,76
265	78,91
266	14,77
267	-28,76
268	34,44
269	-27,36
270	-15,18
271	-24,08
272	-79,31
273	4,48
274	50,82
275	-30,16
276	-15,18
277	-20,8
278	32,09
279	-49,82
280	19,46
281	23,2
282	-2,08
283	8,22
284	-61,06
285	25,54
286	-30,16
287	2,6
288	9,63
289	-46,55
290	-34,38
291	3,54
292	33,03
293	59,24
294	-7,23
295	8,22
296	9,16
297	27,41
298	-41,4
299	117,29
300	-68,08
301	-66,68
302	19,46
303	76,1
304	-33,91
305	-17,06
306	-14,25
307	8,69
308	32,56
309	-4,89
310	23,2
311	-36,25
312	-25,01
313	28,35
314	-13,31
315	55,97
316	1,2
317	-15,65
318	-11,91
319	-3,95
320	15,71
321	-24,08
322	-10,5
323	-66,68
324	14,31
325	54,1
326	24,14
327	-13,31
328	92,01
329	39,58
330	11,97
331	-3,01
332	96,69
333	-12,84
334	-52,16
335	-25,01
336	38,65
337	-26,89
338	-37,65
339	-72,76
340	-20,33
341	27,41
342	22,73
343	-20,8
344	-16,12
345	11,97
346	34,44
347	-21,74
348	8,22
349	-8,16
350	8,69
351	-9,1
352	20,39
353	52,69
354	5,41
355	-86,8
356	38,65
357	-64,8
358	-1,14
359	18,52
360	-4,42
361	32,56
362	26,95
363	19,92
364	85,93
365	-7,23
366	-39,99
367	-31,57
368	-34,84
369	17,58
370	-22,67
371	-5,35
372	19,92
373	6,82
374	18,99
375	-32,97
376	24,6
377	100,44
378	31,63
379	9,16
380	25,54
381	-29,7
382	37,71
383	25,07
384	-17,99
385	74,69
386	-2,08
387	81,71
388	0,73
389	5,88
390	7,75
391	-11,91
392	-54,97
393	-7,23
394	17,12
395	46,14
396	93,42
397	24,6
398	76,56
399	3,54
400	40,99
401	17,12
402	8,22
403	38,65
404	-14,72
405	61,12
406	11,5
407	54,56
408	-29,23
409	8,69
410	-20,8
411	71,42
412	-0,2
413	33,97
414	87,8
415	19,46
416	35,37
417	11,97
418	-18,46
419	-45,14
420	0,26
421	-4,89
422	74,22
423	42,39
424	47,54
425	-5,35
426	33,5
427	39,58
428	59,71
429	-61,06
430	-43,74
431	57,84
432	-46,55
433	2,14
434	12,43
435	16,18
436	51,76
437	28,82
438	-1,61
439	-36,72
440	2,14
441	-24,55
442	-5,35
443	48,95
444	-29,7
445	-21,74
446	5,41
447	-35,78
448	-84,93
449	44,27
450	41,46
451	46,61
452	-1,14
453	32,56
454	19,92
455	2,6
456	22,73
457	-8,63
458	1,67
459	3,07
460	-61,99
461	-79,31
462	69,54
463	33,03
464	47,07
465	36,31
466	42,39
467	66,73
468	57,37
469	-64,34
470	-20,33
471	3,07
472	10,56
473	12,43
474	-24,08
475	-40,93
476	-9,1
477	-16,12
478	0,26
479	57,37
480	41,92
481	9,16
482	95,29
483	114,48
484	65,33
485	133,21
486	38,18
487	34,9
488	94,35
489	24,14
490	87,33
491	72,82
492	63,46
493	72,82
494	25,07
495	53,16
496	102,78
497	72,82
498	56,9
499	74,22
500	56,9
501	60,65
502	121,5
503	6,82
504	48,01
505	25,54
506	70,01
507	125,72
508	69,54
509	91,08
510	121,97
511	24,14
512	113,08
513	136,48
514	47,54
515	62,05
516	85,93
517	63,46
518	61,59
519	80,31
520	48,48
521	35,84
522	93,42
523	25,07
524	18,99
525	38,65
526	40,52
527	63,93
528	48,01
529	-8,63
530	-6,76
531	3,07
532	-16,12
533	76,1
534	18,05
535	-2,55
536	2,6
537	-6,29
538	-15,18
539	-53,57
540	25,54
541	48,48
542	40,99
543	5,88
544	6,35
545	-69,48
546	-235,19
547	-247,83
548	-288,09
549	-165,91
550	-40,46
551	-6,29
552	8,69
553	19,46
554	21,33
555	-45,61
556	6,35
557	-2,55
558	3,07
559	-51,7
560	-15,65
561	22,26
562	-55,44
563	-14,25
564	-39,53
565	-76,97
566	-24,55
567	3,54
568	-50,29
569	-30,63
570	9,63
571	-19,87
572	-66,21
573	-91,95
574	10,56
575	-27,36
576	-28,76
577	-76,04
578	-56,38
579	-117,7
580	-46,08
581	-54,51
582	-110,68
583	-185,11
584	-80,72
585	-103,66
586	-109,74
587	-83,53
588	-114,42
589	-55,44
590	-36,25
591	-144,85
592	-141,11
593	-138,3
594	-152,81
595	-95,23
596	-127,06
597	-89,61
598	-125,19
599	-105,53
600	-85,4
601	-135,96
602	-137,83
603	-50,76
604	-68,08
605	-140,17
606	-78,85
607	-51,23
608	-107,4
609	-165,91
610	-66,21
611	-91,02
612	-92,42
613	-91,49
614	-147,66
615	-105,06
616	-126,13
617	-149,06
618	-231,45
619	-78,38
620	-137,83
621	-97,57
622	-135,49
623	-120,51
624	-133,62
625	-95,7
626	-150,47
627	-66,21
628	-136,89
629	-128,47
630	-115,36
631	-106
632	-119,1
633	-92,42
634	-93,36
635	-106
636	-121,44
637	-83,06
638	-109,74
639	-118,64
640	-159,36
641	-128,47
642	-106
643	-17,06
644	-77,91
645	-117,7
646	-84
647	-49,36
648	-76,97
649	-146,25
650	-103,19
651	-109,27
652	-230,98
653	-190,26
654	-156,55
655	-99,91
656	-37,19
657	-142,51
658	-177,15
659	-106,93
660	-107,87
661	-182,77
662	-181,36
663	-225,83
664	-274,05
665	-268,9
666	-209,92
667	-217,87
668	-198,21
669	-203,83
670	-121,44
671	-147,66
672	-191,66
673	-189,79
674	-193,53
675	-197,75
676	-120,51
677	-110,68
678	16,18
679	-149,06
680	-18,46
681	-66,21
682	24,14
683	-72,29
684	-69,02
685	0,73
686	0,26
687	10,56
688	5,41
689	-35,78
690	4,94
691	1,2
692	16,65
693	53,16
694	41,92
695	151,46
696	48,48
697	7,75
698	36,31
699	80,78
700	128,52
701	66,73
702	103,25
703	94,35
704	30,69
705	77,03
706	122,44
707	74,69
708	140,7
709	107,46
710	97,16
711	135,08
712	165,51
713	85,46
714	152,4
715	160,36
716	189,38
717	124,31
718	122,44
719	204,36
720	140,23
721	147,25
722	152,4
723	143,5
724	164,57
725	175,34
726	103,25
727	177,68
728	115,89
729	206,7
730	135,55
731	98,1
732	203,89
733	185,17
734	174,87
735	211,85
736	263,34
737	158,48
738	193,59
739	191,72
740	162,23
741	148,65
742	202,95
743	228,7
744	208,1
745	254,91
746	119,16
747	227,76
748	172,06
749	230,1
750	219,34
751	164,1
752	228,23
753	246,02
754	181,42
755	287,21
756	208,57
757	257,72
758	165,97
759	152,87
760	233,38
761	253,04
762	165,51
763	277,85
764	178,61
765	223,55
766	227,76
767	241,81
768	178,61
769	248,83
770	172,53
771	260,53
772	217
773	117,29
774	251,64
775	243,68
776	261,47
777	203,89
778	187,04
779	225,89
780	307,34
781	219,34
782	251,64
783	228,23
784	259,59
785	200,61
786	210,91
787	168,31
788	256,79
789	241,81
790	226,36
791	197,8
792	158,02
793	174,4
794	160,82
795	180,48
796	209,98
797	211,85
798	251,64
799	159,89
800	188,44
801	162,7
802	166,91
803	130,4
804	195,93
805	109,8
806	143,04
807	209,98
808	224,95
809	181,89
810	242,27
811	158,95
812	248,83
813	203,89
814	224,95
815	255,85
816	195,93
817	250,7
818	207,63
819	174,4
820	195,46
821	205,29
822	158,95
823	228,23
824	286,74
825	230,1
826	233,38
827	247,89
828	221,21
829	273,17
830	222,61
831	191,25
832	265,21
833	274,57
834	207,17
835	232,91
836	202,49
837	193,12
838	169,72
839	226,83
840	286,74
841	299,38
842	220,74
843	206,23
844	219,34
845	190,78
846	216,06
847	261,94
848	143,5
849	183,76
850	259,59
851	230,57
852	150,53
853	212,32
854	203,42
855	164,1
856	165,51
857	198,74
858	250,7
859	243,21
860	183,76
861	212,32
862	302,19
863	169,72
864	212,78
865	179,55
866	144,44
867	212,32
868	229,64
869	207,17
870	200,61
871	180,95
872	209,04
873	266,62
874	121,97
875	156,61
876	112,14
877	211,85
878	194,53
879	165,51
880	206,23
881	199,21
882	173,93
883	164,57
884	166,44
885	180,48
886	164,1
887	213,25
888	123,38
889	128,52
890	173,46
891	170,19
892	161,29
893	143,97
894	161,76
895	102,31
896	173,93
897	172,99
898	217
899	175,8
900	150,99
901	217,93
902	140,23
903	151,46
904	149,59
905	192,19
906	158,02
907	169,25
908	119,16
909	185,17
910	216,06
911	245,08
912	195,93
913	198,27
914	195,46
915	152,87
916	201,08
917	174,87
918	216,06
919	210,44
920	170,65
921	220,74
922	115,42
923	189,85
924	118,69
925	233,38
926	180,48
927	221,21
928	185,17
929	136,48
930	172,06
931	245,08
932	137,42
933	183,76
934	242,74
935	202,02
936	202,02
937	171,12
938	189,85
939	176,74
940	156,61
941	169,25
942	201,55
943	160,82
944	104,18
945	100,44
946	205,76
947	162,7
948	125,25
949	219,34
950	130,4
951	176,74
952	85,46
953	116,82
954	202,95
955	184,7
956	159,42
957	123,38
958	150,06
959	138,82
960	97,16
961	75,63
962	144,44
963	82,18
964	136,01
965	168,78
966	112,61
967	167,38
968	143,04
969	162,23
970	142,57
971	161,29
972	69,54
973	109,33
974	130,87
975	213,72
976	117,76
977	152,4
978	135,08
979	126,18
980	187,04
981	77,5
982	110,27
983	134,14
984	109,33
985	76,56
986	85,46
987	128,99
988	104,18
989	64,86
990	122,91
991	86,86
992	194,06
993	149,12
994	121,5
995	135,08
996	62,99
997	120,57
998	117,76
999	66,27
1000	124,31
1001	22,26
1002	123,38
1003	121,03
1004	143,97
1005	68,61
1006	11,03
1007	126,18
1008	126,18
1009	75,63
1010	62,05
1011	57,84
1012	134,14
1013	100,44
1014	146,78
1015	143,97
1016	88,74
1017	126,18
1018	91,54
1019	48,48
1020	192,19
1021	73,29
1022	124,31
1023	130,87
1024	174,87
1025	111,67
1026	113,08
1027	74,22
1028	81,71
1029	112,14
1030	162,23
1031	66,27
1032	77,97
1033	92,48
1034	78,91
1035	90,61
1036	30,69
1037	55,5
1038	44,27
1039	29,75
1040	131,8
1041	60,65
1042	78,91
1043	70,48
1044	70,95
1045	90,14
1046	94,82
1047	123,84
1048	87,8
1049	87,33
1050	101,84
1051	40,99
1052	93,42
1053	59,24
1054	86,4
1055	25,54
1056	57,37
1057	149,12
1058	201,08
1059	116,82
1060	50,82
1061	105,59
1062	92,95
1063	105,12
1064	122,91
1065	119,16
1066	26,01
1067	-4,89
1068	52,22
1069	57,37
1070	122,91
1071	13,84
1072	84,52
1073	111,2
1074	27,41
1075	63,93
1076	79,84
1077	107,93
1078	14,77
1079	82,18
1080	51,76
1081	15,24
1082	11,97
1083	64,39
1084	84,52
1085	92,48
1086	43,33
1087	-3,01
1088	7,75
1089	75,16
1090	95,76
1091	84,52
1092	75,16
1093	15,71
1094	61,59
1095	115,42
1096	62,99
1097	110,27
1098	64,86
1099	53,16
1100	66,73
1101	4,01
1102	40,99
1103	73,29
1104	84,99
1105	145,38
1106	93,42
1107	175,8
1108	33,97
1109	58,31
1110	125,72
1111	68,14
1112	77,97
1113	-1,14
1114	19,46
1115	28,35
1116	70,48
1117	-24,55
1118	97,63
1119	12,9
1120	84,05
1121	21,8
1122	47,07
1123	40,99
1124	27,88
1125	71,88
1126	-0,67
1127	107,93
1128	46,14
1129	-32,04
1130	105,59
1131	69,54
1132	65,8
1133	85,46
1134	20,39
1135	14,31
1136	71,88
1137	7,28
1138	43,33
1139	45,67
1140	54,1
1141	67,67
1142	82,18
1143	50,35
1144	11,5
1145	28,82
1146	75,16
1147	82,65
1148	54,56
1149	6,82
1150	49,88
1151	19,92
1152	55,5
1153	11,03
1154	75,16
1155	-34,38
1156	56,44
1157	99,97
1158	75,16
1159	6,35
1160	13,84
1161	82,18
1162	89,67
1163	11,03
1164	147,72
1165	22,26
1166	38,18
1167	68,14
1168	26,48
1169	22,26
1170	8,69
1171	-26,42
1172	-5,82
1173	105,59
1174	46,61
1175	99,5
1176	-26,42
1177	-17,99
1178	86,4
1179	13,37
1180	34,44
1181	79,84
1182	24,14
1183	1,2
1184	59,71
1185	38,18
1186	44,73
1187	78,44
1188	38,18
1189	-0,2
1190	92,01
1191	55,97
1192	-19,4
1193	-15,65
1194	11,97
1195	16,18
1196	45,67
1197	29,29
1198	125,25
1199	120,57
1200	66,27
1201	39,58
1202	48,48
1203	36,31
1204	-10,04
1205	-18,46
1206	0,26
1207	53,16
1208	16,18
1209	-3,01
1210	29,75
1211	27,88
1212	41,46
1213	40,99
1214	88,27
1215	42,86
1216	-30,16
1217	39,12
1218	4,94
1219	69,54
1220	33,97
1221	83,12
1222	-14,72
1223	106,99
1224	75,63
1225	33,5
1226	36,31
1227	67,67
1228	-36,25
1229	26,48
1230	-10,5
1231	62,99
1232	12,9
1233	5,88
1234	52,69
1235	25,07
1236	-2,55
1237	104,18
1238	2,6
1239	27,41
1240	0,26
1241	75,16
1242	-10,97
1243	-21,27
1244	47,54
1245	68,14
1246	56,9
1247	79,84
1248	10,56
1249	51,76
1250	-7,23
1251	74,22
1252	102,31
1253	23,2
1254	-4,42
1255	31,16
1256	-37,65
1257	8,22
1258	25,07
1259	12,9
1260	74,69
1261	19,46
1262	-55,44
1263	54,56
1264	-9,57
1265	6,35
1266	-25,01
1267	-20,33
1268	64,86
1269	-7,23
1270	48,95
1271	-25,01
1272	84,99
1273	-17,06
1274	21,33
1275	15,24
1276	15,71
1277	-0,2
1278	-9,57
1279	15,24
1280	46,14
1281	-0,2
1282	95,29
1283	-35,78
1284	31,63
1285	68,61
1286	41,92
1287	34,44
1288	-27,36
1289	11,5
1290	-51,23
1291	21,33
1292	-23,61
1293	-17,06
1294	27,41
1295	-66,21
1296	75,16
1297	-47,48
1298	7,28
1299	40,99
1300	33,97
1301	21,8
1302	16,18
1303	-15,18
1304	-2,55
1305	41,46
1306	19,46
1307	58,31
1308	-11,44
1309	18,52
1310	13,37
1311	-40,93
1312	16,18
1313	7,28
1314	4,94
1315	-29,7
1316	24,6
1317	23,67
1318	29,29
1319	17,58
1320	18,05
1321	48,01
1322	80,31
1323	-26,89
1324	-22,21
1325	17,12
1326	-65,74
1327	-43,27
1328	66,27
1329	-47,95
1330	-30,63
1331	-3,01
1332	-29,23
1333	-14,72
1334	1,2
1335	28,35
1336	-24,55
1337	-21,74
1338	-60,59
1339	-37,65
1340	33,5
1341	11,5
1342	-4,89
1343	43,8
1344	-39,53
1345	26,01
1346	-77,91
1347	-70,89
1348	-63,4
1349	-25,95
1350	4,94
1351	-49,82
1352	-32,5
1353	-25,48
1354	-17,99
1355	-37,65
1356	-9,1
1357	-36,25
1358	-114,89
1359	-47,48
1360	-54,51
1361	-28,29
1362	13,84
1363	14,77
1364	-33,91
1365	-37,65
1366	-50,29
1367	28,82
1368	-10,5
1369	-11,91
1370	-82,12
1371	-30,63
1372	-24,55
1373	49,88
1374	-20,8
1375	-54,04
1376	-39,53
1377	-23,14
1378	-10,97
1379	-74,63
1380	-39,99
1381	-20,8
1382	-37,19
1383	-29,7
1384	15,24
1385	-8,63
1386	-51,7
1387	13,84
1388	-24,08
1389	-0,2
1390	-7,69
1391	14,77
1392	-72,76
1393	-11,91
1394	-35,31
1395	-32,97
1396	-42,8
1397	-68,08
1398	-36,25
1399	-35,31
1400	43,8
1401	3,07
1402	5,41
1403	-69,02
1404	21,33
1405	25,07
1406	-0,67
1407	-35,31
1408	-13,78
1409	23,67
1410	-13,78
1411	-52,63
1412	-25,48
1413	19,92
1414	-22,21
1415	-60,59
1416	-4,42
1417	-4,42
1418	-26,42
1419	-84,46
1420	-48,42
1421	-32,97
1422	-6,29
1423	-7,69
1424	-4,42
1425	48,95
1426	21,8
1427	47,54
1428	56,9
1429	-9,1
1430	28,35
1431	45,67
1432	30,69
1433	-113,95
1434	-67,14
1435	86,86
1436	31,16
1437	-40,93
1438	-7,69
1439	3,54
1440	-26,89
1441	62,05
1442	46,61
1443	-23,61
1444	-39,99
1445	-3,48
1446	-29,7
1447	-12,38
1448	-20,33
1449	17,12
1450	-34,38
1451	-3,95
1452	-84,93
1453	-91,95
1454	-29,7
1455	-24,55
1456	38,65
1457	-37,65
1458	-0,2
1459	48,48
1460	-32,97
1461	43,33
1462	-42,33
1463	-9,1
1464	-51,7
1465	-31,57
1466	-25,48
1467	37,71
1468	-89,61
1469	-9,1
1470	-27,36
1471	37,24
1472	3,07
1473	-39,06
1474	-54,51
1475	-54,97
1476	13,37
1477	11,5
1478	23,67
1479	14,31
1480	-70,42
1481	-33,44
1482	38,18
1483	-17,52
1484	-44,21
1485	-59,65
1486	30,22
1487	-18,46
1488	-23,14
1489	36,78
1490	-72,29
1491	16,18
1492	29,29
1493	9,63
1494	-50,76
1495	2,14
1496	-8,63
1497	16,65
1498	73,76
1499	74,22
1500	-70,42
1501	17,58
1502	-46,55
1503	-12,38
1504	59,24
1505	-31,57
1506	14,31
1507	-10,97
1508	-60,12
1509	-37,19
1510	-34,84
1511	10,09
1512	80,78
1513	23,2
1514	-17,06
1515	-52,16
1516	16,18
1517	-28,29
1518	-54,97
1519	11,97
1520	-25,95
1521	1,2
1522	-88,21
1523	-59,19
1524	48,48
1525	-21,74
1526	1,2
1527	5,41
1528	13,37
1529	-19,87
1530	82,65
1531	14,77
1532	-53,1
1533	-27,36
1534	-48,89
1535	-6,76
1536	1,67
1537	-2,08
1538	32,09
1539	-3,01
1540	-62,93
1541	14,31
1542	-17,52
1543	23,2
1544	-17,99
1545	13,37
1546	-0,67
1547	-75,1
1548	-34,38
1549	1,67
1550	-63,4
1551	-10,97
1552	-41,87
1553	34,9
1554	-19,4
1555	18,99
1556	-10,5
1557	48,01
1558	3,54
1559	19,46
1560	56,44
1561	-47,95
1562	-47,02
1563	54,1
1564	41,46
1565	-0,2
1566	-4,42
1567	99,03
1568	15,24
1569	-65,74
1570	-28,29
1571	-25,01
1572	-62,46
1573	-70,42
1574	10,56
1575	-11,44
1576	71,88
1577	20,39
1578	20,86
1579	5,41
1580	-66,21
1581	79,37
1582	19,46
1583	-99,44
1584	-21,74
1585	-40,93
1586	29,29
1587	-5,82
1588	-51,23
1589	-73,7
1590	44,27
1591	-5,35
1592	10,09
1593	-40,46
1594	-62,46
1595	40,99
1596	50,35
1597	28,35
1598	18,52
1599	-22,21
1600	40,52
1601	9,16
1602	-64,34
1603	72,35
1604	6,35
1605	17,12
1606	16,65
1607	-5,35
1608	9,63
1609	26,95
1610	-49,82
1611	72,82
1612	-10,04
1613	-7,69
1614	-10,04
1615	24,6
1616	-3,01
1617	20,39
1618	-20,8
1619	67,2
1620	-14,25
1621	-18,46
1622	-6,76
1623	7,28
1624	34,44
1625	50,35
1626	29,75
1627	-4,89
1628	12,43
1629	27,41
1630	27,88
1631	-7,69
1632	12,43
1633	17,12
1634	36,78
1635	3,54
1636	-25,01
1637	13,84
1638	23,2
1639	98,57
1640	-5,35
1641	-30,16
1642	10,09
1643	-36,25
1644	-31,1
1645	-51,7
1646	47,07
1647	22,26
1648	-46,08
1649	-57,31
1650	50,82
1651	-10,97
1652	13,84
1653	-13,78
1654	-0,2
1655	29,29
1656	1,2
1657	-68,08
1658	-24,55
1659	6,82
1660	46,61
1661	-51,7
1662	-35,31
1663	39,12
1664	-12,84
1665	24,14
1666	50,35
1667	-23,61
1668	5,41
1669	40,99
1670	29,75
1671	-15,65
1672	33,97
1673	-55,91
1674	-2,08
1675	3,54
1676	21,8
1677	42,39
1678	-28,29
1679	-46,55
1680	61,12
1681	49,41
1682	40,52
1683	-10,5
1684	11,03
1685	66,27
1686	44,27
1687	37,71
1688	32,56
1689	18,99
1690	-46,08
1691	4,48
1692	41,92
1693	-18,46
1694	-14,72
1695	11,5
1696	5,88
1697	27,41
1698	76,56
1699	5,88
1700	-18,93
1701	-21,74
1702	-11,44
1703	5,41
1704	3,54
1705	81,71
1706	-10,5
1707	23,67
1708	-4,42
1709	-40,93
1710	-17,06
1711	11,03
1712	-22,21
1713	-52,63
1714	6,82
1715	15,24
1716	7,75
1717	-50,29
1718	44,73
1719	-2,08
1720	-16,59
1721	37,24
1722	-1,61
1723	-11,44
1724	-28,76
1725	-5,82
1726	11,03
1727	-25,95
1728	26,95
1729	-41,87
1730	85,93
1731	-54,97
1732	-27,82
1733	-23,14
1734	-9,57
1735	29,75
1736	33,97
1737	24,14
1738	18,05
1739	-10,5
1740	35,84
1741	64,86
1742	24,14
1743	12,9
1744	48,95
1745	-13,78
1746	-10,04
1747	26,48
1748	-42,33
1749	-32,04
1750	4,48
1751	7,75
1752	36,78
1753	17,12
1754	24,14
1755	41,46
1756	110,74
1757	36,78
1758	73,76
1759	39,12
1760	-67,14
1761	-50,29
1762	-48,42
1763	66,27
1764	-50,76
1765	30,22
1766	-1,14
1767	-94,29
1768	5,88
1769	23,2
1770	-25,95
1771	53,63
1772	61,12
1773	47,07
1774	22,73
1775	-53,1
1776	-20,33
1777	43,8
1778	2,6
1779	17,12
1780	-12,84
1781	35,84
1782	-13,31
1783	-30,63
1784	9,63
1785	-5,35
1786	50,82
1787	-24,55
1788	-48,89
1789	-21,27
1790	-60,12
1791	-42,33
1792	39,12
1793	-4,89
1794	52,69
1795	11,97
1796	-17,99
1797	15,71
1798	-61,06
1799	-103,66
1800	-33,44
1801	-24,55
1802	46,14
1803	28,35
1804	-42,8
1805	-11,44
1806	-30,16
1807	-42,8
1808	24,14
1809	-20,33
1810	22,73
1811	-1,14
1812	33,5
1813	12,9
1814	12,43
1815	-0,2
1816	22,73
1817	-36,72
1818	-9,57
1819	10,56
1820	-16,12
1821	39,58
1822	-38,12
1823	-22,67
1824	14,77
1825	42,86
1826	-42,8
1827	50,82
1828	3,07
1829	18,52
1830	-38,59
1831	1,2
1832	51,29
1833	32,56
1834	7,75
1835	48,01
1836	-34,38
1837	26,01
1838	-59,65
1839	59,24
1840	10,09
1841	60,65
1842	-55,44
1843	36,78
1844	-12,38
1845	-22,67
1846	37,71
1847	-16,59
1848	-18,46
1849	41,46
1850	-1,61
1851	42,39
1852	-35,31
1853	31,63
1854	-7,69
1855	9,16
1856	16,65
1857	33,03
1858	43,33
1859	70,48
1860	-17,99
1861	6,35
1862	43,8
1863	42,39
1864	-0,67
1865	4,94
1866	59,71
1867	-2,08
1868	-8,63
1869	-74,63
1870	11,5
1871	21,33
1872	2,6
1873	12,9
1874	-44,21
1875	-44,67
1876	7,75
1877	-44,67
1878	-44,21
1879	-26,89
1880	43,33
1881	58,31
1882	86,4
1883	-24,08
1884	24,6
1885	62,05
1886	16,18
1887	-4,42
1888	62,99
1889	1,2
1890	-45,61
1891	66,73
1892	-6,29
1893	77,5
1894	45,2
1895	45,2
1896	-22,67
1897	47,07
1898	9,63
1899	18,99
1900	-90,55
1901	-22,67
1902	-29,23
1903	-56,85
1904	32,56
1905	24,14
1906	28,82
1907	-31,1
1908	14,77
1909	-51,7
1910	-74,17
1911	-7,69
1912	-34,84
1913	26,01
1914	-26,42
1915	30,22
1916	-34,84
1917	29,75
1918	92,48
1919	3,54
1920	47,54
1921	-98,98
1922	-10,5
1923	-25,01
1924	-31,57
1925	-36,72
1926	-57,31
1927	-61,99
1928	-44,67
1929	9,16
1930	-0,2
1931	-37,65
1932	10,09
1933	-12,38
1934	40,05
1935	-16,12
1936	12,9
1937	-7,23
1938	27,88
1939	13,84
1940	-67,14
1941	70,95
1942	31,63
1943	53,63
1944	-41,4
1945	19,92
1946	-61,99
1947	62,52
1948	59,24
1949	26,48
1950	4,01
1951	67,2
1952	114,01
1953	-4,42
1954	-35,78
1955	-39,53
1956	-27,36
1957	-19,87
1958	-34,84
1959	15,24
1960	37,24
1961	9,16
1962	30,69
1963	5,41
1964	67,2
1965	29,75
1966	-3,01
1967	-47,48
1968	50,82
1969	-7,69
1970	15,71
1971	-21,27
1972	18,05
1973	8,69
1974	4,01
1975	1,67
1976	9,16
1977	48,48
1978	-4,42
1979	-32,04
1980	-45,14
1981	-74,63
1982	-10,5
1983	3,54
1984	16,18
1985	29,75
1986	-35,78
1987	62,52
1988	-11,44
1989	-67,14
1990	4,94
1991	-78,85
1992	3,07
1993	84,05
1994	-12,84
1995	46,14
1996	10,09
1997	43,33
1998	18,99
1999	-15,65
2000	-21,27
2001	-29,23
2002	-2,08
2003	-22,67
2004	-11,44
2005	-38,59
2006	-11,44
2007	33,5
2008	-15,18
2009	17,12
2010	-23,61
2011	63,93
2012	-20,33
2013	63,46
2014	-40,46
2015	41,46
2016	-21,27
2017	52,22
2018	88,74
2019	96,23
2020	-14,25
2021	21,8
2022	-19,87
2023	10,56
2024	28,35
2025	-12,84
2026	49,41
2027	-75,1
2028	66,27
2029	-10,5
2030	-20,8
2031	22,73
2032	14,77
2033	18,05
2034	-17,06
2035	-3,01
2036	-3,48
2037	11,03
2038	-34,38
2039	44,73
2040	-105,53
2041	2,14
2042	-0,2
2043	50,82
2044	21,33
2045	-19,4
2046	-19,4
2047	-19,4
