Data from Subt2_15-43-15-997.txt Node
Date: Wed Apr 21 15:43:15 CEST 2021
User: au643642
Spectrometer: FLMS05507
Trigger mode: 0
Integration Time (sec): 4,000000E-2
Scans to average: 5
Electric dark correction enabled: true
Nonlinearity correction enabled: false
Boxcar width: 0
XAxis mode: Pixels
Number of Pixels in Spectrum: 2048
>>>>>Begin Spectral Data<<<<<
0	21,68
1	21,68
2	21,68
3	64,75
4	64,28
5	8,1
6	31,04
7	-16,24
8	-47,6
9	54,91
10	0,61
11	-26,07
12	-22,79
13	-3,6
14	99,38
15	-1,73
16	11,85
17	-34,96
18	-27
19	-78,03
20	52,11
21	-25,6
22	-83,64
23	-64,92
24	5,3
25	-5,94
26	-26,54
27	112,96
28	8,1
29	-5
30	-21,39
31	-35,43
32	37,13
33	-9,68
34	8,1
35	-20,45
36	-51,81
37	17
38	10,44
39	34,79
40	-30,28
41	-73,35
42	6,23
43	6,7
44	39,94
45	-17,17
46	19,34
47	11,85
48	-76,16
49	45,55
50	29,64
51	-26,54
52	10,44
53	-12,96
54	20,27
55	12,32
56	-23,26
57	-9,22
58	3,42
59	74,11
60	83,94
61	-61,64
62	-6,41
63	3,89
64	-19,51
65	-31,69
66	13,72
67	-131,39
68	-59,77
69	39
70	89,55
71	9,04
72	28,7
73	-8,75
74	-12,02
75	-85,99
76	47,43
77	45,55
78	37,13
79	-37,3
80	2,95
81	-23,73
82	32,91
83	10,44
84	71,77
85	4,83
86	64,28
87	-20,92
88	0,15
89	-3,6
90	6,23
91	13,72
92	119,51
93	14,19
94	-63,05
95	60,53
96	-55,09
97	43,21
98	35,25
99	-22,32
100	-48,54
101	-44,79
102	25,42
103	-5,94
104	-63,05
105	26,83
106	16,53
107	-56,49
108	-40,11
109	23,08
110	-19,05
111	56,32
112	-29,34
113	21,68
114	-48,54
115	61
116	32,45
117	73,64
118	-7,81
119	19,81
120	7,17
121	39
122	-26,54
123	77,85
124	-13,43
125	47,89
126	36,66
127	57,26
128	-5
129	-34,96
130	33,85
131	13,72
132	-50,88
133	-29,34
134	-11,56
135	-82,24
136	-14,37
137	14,19
138	45,08
139	-26,07
140	-1,73
141	-41,98
142	61,47
143	-34,96
144	23,55
145	26,36
146	-32,15
147	-15,77
148	35,25
149	31,04
150	-12,96
151	11,38
152	-67,73
153	1,55
154	7,17
155	-49,47
156	-52,75
157	29,17
158	88,62
159	83,47
160	5,3
161	64,75
162	-65,86
163	61,47
164	-9,22
165	2,95
166	47,43
167	-67,26
168	44,62
169	35,25
170	-59,77
171	-101,9
172	3,42
173	-63,52
174	-8,28
175	74,11
176	-21,39
177	-21,39
178	-65,86
179	46,02
180	-37,3
181	-34,49
182	55,38
183	-80,37
184	-12,02
185	-4,07
186	43,68
187	-14,83
188	-62,11
189	7,17
190	59,13
191	33,38
192	20,27
193	-12,96
194	10,91
195	-7,81
196	-53,69
197	-14,83
198	-38,71
199	37,13
200	14,19
201	0,61
202	33,38
203	-18,58
204	-23,73
205	48,36
206	-4,07
207	-5,47
208	-37,3
209	-25,6
210	-22,79
211	-33,09
212	-21,85
213	-19,98
214	18,4
215	23,08
216	-1,26
217	-74,28
218	45,08
219	41,34
220	17,47
221	24,96
222	97,98
223	20,27
224	20,27
225	-20,92
226	-6,88
227	-17,17
228	33,85
229	62,87
230	3,89
231	6,23
232	15,13
233	61,94
234	84,87
235	37,13
236	24,02
237	16,53
238	20,27
239	72,7
240	-39,17
241	33,85
242	-6,88
243	37,59
244	19,81
245	9,04
246	16,53
247	-5
248	24,02
249	91,43
250	16,06
251	-13,9
252	-25,13
253	-37,3
254	5,3
255	2,49
256	-25,6
257	-5,47
258	26,36
259	-6,88
260	54,91
261	-39,64
262	30,11
263	-22,32
264	-0,32
265	64,28
266	10,91
267	-9,68
268	47,89
269	-54,15
270	-37,77
271	-2,19
272	-81,3
273	-5,47
274	29,17
275	-7,81
276	-27,94
277	6,7
278	11,38
279	-30,75
280	2,95
281	13,72
282	-8,28
283	-25,13
284	-75,69
285	31,04
286	-39,64
287	11,38
288	17
289	-38,71
290	-19,51
291	-24,2
292	20,27
293	24,49
294	-43,39
295	-13,9
296	10,44
297	43,21
298	5,3
299	112,96
300	-46,66
301	-35,9
302	15,59
303	49,77
304	-28,41
305	-46,2
306	2,02
307	17,47
308	36,66
309	-19,05
310	4,36
311	-41,52
312	-78,03
313	23,08
314	-5,94
315	73,64
316	-11,09
317	-15,77
318	-16,24
319	17,93
320	-1,73
321	-4,53
322	-21,85
323	-14,37
324	4,36
325	46,49
326	-9,68
327	-2,19
328	85,81
329	-3,13
330	21,68
331	-13,9
332	61,47
333	-46,66
334	-36,83
335	-29,34
336	49,3
337	-43,39
338	-56,03
339	-43,86
340	-9,68
341	-7,81
342	-22,79
343	2,02
344	-32,62
345	32,91
346	35,72
347	-0,32
348	-21,85
349	-45,26
350	-6,88
351	1,55
352	2,95
353	61,94
354	-31,22
355	-92,07
356	14,19
357	-96,75
358	-2,66
359	4,36
360	-6,41
361	6,7
362	1,55
363	-19,51
364	94,7
365	-34,49
366	-72,88
367	0,15
368	-59,3
369	24,49
370	-0,79
371	-12,02
372	28,7
373	16,53
374	4,83
375	-38,24
376	44,62
377	85,34
378	34,32
379	36,19
380	-16,71
381	-23,26
382	34,79
383	0,61
384	4,36
385	52,11
386	31,51
387	60,06
388	19,34
389	9,98
390	16,06
391	-18,11
392	5,3
393	-23,26
394	-13,9
395	20,74
396	22,15
397	1,08
398	62,4
399	3,42
400	36,66
401	25,89
402	17,47
403	24,49
404	-6,41
405	85,34
406	11,38
407	71,3
408	-35,9
409	28,23
410	-35,9
411	16,53
412	-1,26
413	6,23
414	75,51
415	9,98
416	23,55
417	-5,47
418	-85,05
419	11,85
420	10,44
421	-18,11
422	69,89
423	-2,19
424	49,3
425	-11,56
426	41,34
427	51,64
428	34,32
429	-66,79
430	-35,43
431	18,4
432	-24,2
433	-30,28
434	-1,73
435	26,83
436	44,62
437	3,42
438	-18,58
439	0,15
440	-13,9
441	-23,26
442	-19,98
443	94,7
444	-21,85
445	-41,05
446	-5,94
447	-43,39
448	-55,09
449	26,36
450	52,11
451	77,85
452	12,79
453	6,23
454	11,38
455	-36,37
456	64,75
457	-10,15
458	37,13
459	-1,73
460	-70,07
461	-40,11
462	87,21
463	42,74
464	86,28
465	82,07
466	78,79
467	139,64
468	78,79
469	-41,52
470	13,72
471	35,72
472	43,68
473	57,72
474	27,3
475	46,49
476	18,4
477	28,23
478	83,47
479	164,45
480	142,45
481	112,96
482	147,6
483	134,02
484	195,35
485	211,73
486	99,85
487	138,71
488	165,86
489	141,05
490	181,77
491	189,26
492	188,33
493	176,62
494	185,98
495	182,24
496	251,52
497	218,75
498	171,94
499	258,07
500	186,45
501	174,75
502	255,26
503	200,5
504	212,2
505	201,9
506	241,22
507	242,63
508	239,82
509	231,39
510	256,2
511	185,05
512	275,86
513	315,18
514	251,99
515	253,86
516	281,95
517	264,16
518	212,2
519	243,09
520	239,35
521	225,31
522	264,16
523	191,6
524	244,97
525	241,22
526	249,65
527	261,82
528	252,92
529	170,54
530	214,54
531	217,35
532	166,79
533	252,92
534	189,26
535	86,75
536	179,9
537	130,28
538	216,41
539	158,83
540	222,03
541	233,26
542	207,05
543	185,98
544	217,35
545	95,17
546	-6,88
547	-9,22
548	-36,83
549	58,66
550	184,58
551	204,24
552	171,47
553	229,05
554	202,84
555	127
556	252,46
557	201,43
558	187,86
559	144,79
560	227,65
561	240,75
562	168,2
563	189,73
564	171,47
565	188,33
566	178,5
567	199,56
568	174,75
569	241,22
570	241,22
571	201,9
572	140,11
573	136,83
574	256,67
575	199,56
576	261,35
577	185,52
578	192,54
579	150,88
580	196,28
581	163,52
582	204,71
583	65,68
584	140,11
585	159,3
586	157,9
587	168,66
588	165,39
589	203,77
590	218,28
591	145,73
592	133,09
593	172,88
594	151,34
595	169,6
596	123,73
597	147,13
598	144,79
599	171,01
600	196,75
601	137,3
602	149
603	211,26
604	225,77
605	176,15
606	228,11
607	244,5
608	176,15
609	150,88
610	179,9
611	217,82
612	220,62
613	191,6
614	131,22
615	219,22
616	172,88
617	162,58
618	41,34
619	170,54
620	221,09
621	167,73
622	209,39
623	184,11
624	170,54
625	233,26
626	150,88
627	240,29
628	189,73
629	213,14
630	200,03
631	254,8
632	234,67
633	232,33
634	268,84
635	222,03
636	237,01
637	266,97
638	237,48
639	231,39
640	235,6
641	214,54
642	262,29
643	374,16
644	289,44
645	249,18
646	317,05
647	296,93
648	351,23
649	269,78
650	266,03
651	321,27
652	211,26
653	283,82
654	324,54
655	354,97
656	363,87
657	277,27
658	278,67
659	349,82
660	372,76
661	224,37
662	254,8
663	182,71
664	147,6
665	173,81
666	209,39
667	202,84
668	234,67
669	231,86
670	374,16
671	339,06
672	291,78
673	329,23
674	348,42
675	282,41
676	364,33
677	367,14
678	455,15
679	360,59
680	420,51
681	424,72
682	522,09
683	466,85
684	453,27
685	506,17
686	524,89
687	511,32
688	496,34
689	451,87
690	479,02
691	479,96
692	544,55
693	542,21
694	523,96
695	598,86
696	536,13
697	452,81
698	522,55
699	544,55
700	606,81
701	561,41
702	548,3
703	585,28
704	527,23
705	553,45
706	630,22
707	583,88
708	627,88
709	601,66
710	601,2
711	668,14
712	668,6
713	582,47
714	665,33
715	660,18
716	684,05
717	611,96
718	603,07
719	675,62
720	637,71
721	690,6
722	638,64
723	632,09
724	701,84
725	648,47
726	649,88
727	661,11
728	614,77
729	670,48
730	654,56
731	626,47
732	684,52
733	645,67
734	603,07
735	650,35
736	714,95
737	640,05
738	632,09
739	651,28
740	609,15
741	583,88
742	658,3
743	726,65
744	776,27
745	715,88
746	594,17
747	749,12
748	601,66
749	674,22
750	705,58
751	659,71
752	714,01
753	765,97
754	689,67
755	765,03
756	632,56
757	739,76
758	630,69
759	603,07
760	741,63
761	734,61
762	709,33
763	736,01
764	695,75
765	699,5
766	738,82
767	737,88
768	665,79
769	767,37
770	660,65
771	727,58
772	693,88
773	615,71
774	736,95
775	721,03
776	726,18
777	712,61
778	732,27
779	716,35
780	825,89
781	721,03
782	776,74
783	722,44
784	756,61
785	666,26
786	730,39
787	650,82
788	728,99
789	757,08
790	731,8
791	777,2
792	700,43
793	714,01
794	692,94
795	745,84
796	806,69
797	747,71
798	793,59
799	675,62
800	774,86
801	790,31
802	762,69
803	680,31
804	761,29
805	657,37
806	668,14
807	716,82
808	747,25
809	701,84
810	753,33
811	650,82
812	748,18
813	726,65
814	695,75
815	723,37
816	680,31
817	725,71
818	733,67
819	634,9
820	671,88
821	694,35
822	651,28
823	702,31
824	740,22
825	715,88
826	696,22
827	714,48
828	691,54
829	713,54
830	649,41
831	615,71
832	749,59
833	655,96
834	675,16
835	644,26
836	663,45
837	664,86
838	579,66
839	671,88
840	689,67
841	694,82
842	633,96
843	632,56
844	616,18
845	626,47
846	691,54
847	673,75
848	577,79
849	643,33
850	642,86
851	690,14
852	594,64
853	650,35
854	604,94
855	577,32
856	614,3
857	618,98
858	657,84
859	643,79
860	577,32
861	628,81
862	714,48
863	549,24
864	661,11
865	595,11
866	555,79
867	644,73
868	654,09
869	623,66
870	565,15
871	545,02
872	601,66
873	616,64
874	531,45
875	577,32
876	541,75
877	560
878	611,49
879	541,75
880	616,64
881	540,34
882	623,66
883	526,77
884	552,51
885	582
886	570,3
887	592,77
888	507,11
889	529,11
890	533,32
891	551,58
892	546,43
893	551,58
894	527,23
895	467,79
896	486,98
897	553,92
898	564,22
899	533,79
900	503,83
901	588,56
902	486,04
903	464,04
904	451,4
905	553,92
906	494,94
907	529,11
908	480,42
909	521,15
910	535,19
911	589,49
912	535,66
913	551,58
914	578,73
915	512,26
916	549,24
917	498,68
918	560,47
919	568,43
920	551,11
921	553,92
922	475,74
923	554,85
924	491,19
925	590,9
926	518,81
927	550,64
928	549,24
929	465,91
930	493,53
931	572,64
932	437,36
933	548,77
934	591,83
935	534,72
936	535,66
937	479,96
938	530,04
939	537,53
940	494,47
941	472,93
942	533,32
943	507,11
944	460,3
945	449,06
946	456,55
947	472,47
948	457,02
949	505,7
950	479,49
951	528,17
952	406
953	471,53
954	575,92
955	594,17
956	607,75
957	565,15
958	577,32
959	503,83
960	452,81
961	385,4
962	481,36
963	423,78
964	490,72
965	462,64
966	421,44
967	477,15
968	443,44
969	396,63
970	406,46
971	429,87
972	300,67
973	372,29
974	388,68
975	440,17
976	369,48
977	384,46
978	383,99
979	378,38
980	444,38
981	347,95
982	364,8
983	381,65
984	321,74
985	299,27
986	369,95
987	359,18
988	342,8
989	302,54
990	375,57
991	382,12
992	389,61
993	370,89
994	324,08
995	323,14
996	259,01
997	322,67
998	310,5
999	300,67
1000	350,76
1001	279,14
1002	360,12
1003	356,84
1004	354,97
1005	301,14
1006	225,31
1007	342,33
1008	334,37
1009	307,69
1010	270,71
1011	299,27
1012	360,59
1013	347,01
1014	327,35
1015	365,74
1016	288,03
1017	300,2
1018	277,27
1019	276,33
1020	349,35
1021	291,31
1022	275,86
1023	324,08
1024	375,57
1025	304,42
1026	238,41
1027	275,86
1028	298,8
1029	311,91
1030	294,12
1031	227,18
1032	260,41
1033	221,09
1034	269,78
1035	252,92
1036	243,09
1037	266,03
1038	239,35
1039	241,22
1040	307,22
1041	249,18
1042	265,09
1043	263,69
1044	286,63
1045	235,6
1046	270,24
1047	294,12
1048	247,31
1049	257,61
1050	300,2
1051	246,37
1052	292,25
1053	247,31
1054	236,54
1055	164,45
1056	239,82
1057	305,82
1058	357,78
1059	255,26
1060	231,39
1061	229,05
1062	259,01
1063	240,75
1064	269,78
1065	238,88
1066	116,7
1067	163,05
1068	219,69
1069	199,09
1070	257,61
1071	207,05
1072	220,16
1073	244,97
1074	204,71
1075	267,9
1076	203,3
1077	222,97
1078	162,58
1079	238,41
1080	212,67
1081	182,71
1082	195,82
1083	224,84
1084	262,75
1085	255,26
1086	206,11
1087	164,92
1088	170,54
1089	224,37
1090	214,54
1091	177,56
1092	179,43
1093	189,26
1094	194,88
1095	202,37
1096	178,03
1097	227,18
1098	141,51
1099	179,9
1100	158,37
1101	96,58
1102	156,96
1103	166,79
1104	227,65
1105	230,92
1106	225,77
1107	259,48
1108	208,45
1109	174,28
1110	213,6
1111	219,22
1112	192,54
1113	115,3
1114	173,81
1115	173,81
1116	178,96
1117	87,21
1118	199,09
1119	119,05
1120	182,24
1121	150,41
1122	156,49
1123	163,52
1124	115,3
1125	146,66
1126	137,3
1127	199,09
1128	148,54
1129	95,17
1130	181,3
1131	167,26
1132	152,28
1133	202,37
1134	76,92
1135	152,28
1136	149,94
1137	76,45
1138	115,77
1139	71,3
1140	143,86
1141	107,34
1142	141,51
1143	87,68
1144	78,32
1145	85,81
1146	139,64
1147	173,35
1148	137,3
1149	87,21
1150	141,98
1151	103,6
1152	116,7
1153	100,79
1154	148,54
1155	69,43
1156	143,39
1157	190,67
1158	131,68
1159	85,34
1160	94,24
1161	158,83
1162	121,39
1163	104,53
1164	225,31
1165	70,83
1166	102,66
1167	117,17
1168	87,21
1169	90,96
1170	75,51
1171	30,57
1172	95,64
1173	131,68
1174	114,36
1175	178,5
1176	60,53
1177	112,49
1178	156,49
1179	92,36
1180	133,09
1181	171,01
1182	86,75
1183	61,47
1184	104,07
1185	82,07
1186	106,41
1187	134,49
1188	129,81
1189	64,75
1190	146,2
1191	103,13
1192	63,81
1193	72,23
1194	63,34
1195	106,41
1196	86,28
1197	109,68
1198	139,17
1199	157,9
1200	140,58
1201	126,07
1202	97,04
1203	104,07
1204	87,68
1205	48,83
1206	76,92
1207	160,71
1208	65,21
1209	43,21
1210	69,89
1211	119,05
1212	92,83
1213	61
1214	114,83
1215	92,36
1216	17
1217	110,62
1218	98,92
1219	124,66
1220	70,83
1221	128,41
1222	34,32
1223	140,11
1224	112,02
1225	86,75
1226	78,32
1227	139,64
1228	9,98
1229	98,92
1230	50,7
1231	116,7
1232	66,15
1233	36,66
1234	103,6
1235	79,72
1236	58,19
1237	75,98
1238	61,47
1239	55,38
1240	36,19
1241	97,04
1242	27,3
1243	18,87
1244	113,43
1245	74,58
1246	84,41
1247	116,7
1248	61,47
1249	107,81
1250	60,53
1251	126,07
1252	171,94
1253	66,15
1254	84,87
1255	54,91
1256	4,36
1257	57,26
1258	72,7
1259	67,55
1260	137,77
1261	59,6
1262	3,89
1263	75,51
1264	-15,3
1265	19,81
1266	37,59
1267	20,74
1268	99,85
1269	0,15
1270	101,73
1271	24,96
1272	125,13
1273	10,91
1274	37,59
1275	47,43
1276	61,47
1277	38,06
1278	3,42
1279	46,96
1280	68,02
1281	63,81
1282	88,62
1283	17,47
1284	85,81
1285	101,26
1286	89,55
1287	80,19
1288	16,06
1289	38,53
1290	-27
1291	58,66
1292	7,64
1293	28,7
1294	53,51
1295	-28,41
1296	75,98
1297	-44,32
1298	58,66
1299	76,92
1300	54,91
1301	68,49
1302	50,23
1303	40,4
1304	61,94
1305	62,4
1306	75,04
1307	89,09
1308	14,66
1309	78,32
1310	22,15
1311	8,57
1312	82,53
1313	24,49
1314	5,3
1315	-25,13
1316	62,87
1317	62,87
1318	31,98
1319	31,04
1320	68,02
1321	5,3
1322	87,68
1323	-15,77
1324	-0,79
1325	-5,47
1326	-67,73
1327	-25,6
1328	46,49
1329	-17,17
1330	-41,52
1331	7,64
1332	-12,02
1333	24,49
1334	0,15
1335	17,93
1336	-15,77
1337	69,89
1338	-21,85
1339	-38,24
1340	39
1341	9,04
1342	-1,73
1343	51,64
1344	-27
1345	52,57
1346	-90,67
1347	-37,3
1348	-87,86
1349	-20,45
1350	-11,09
1351	-1,26
1352	-3,13
1353	8,57
1354	23,55
1355	17,93
1356	62,4
1357	-34,96
1358	-61,18
1359	15,13
1360	-3,6
1361	10,91
1362	34,32
1363	-6,88
1364	8,1
1365	-28,88
1366	-23,26
1367	38,06
1368	1,55
1369	23,08
1370	-83,64
1371	-24,66
1372	-20,92
1373	38,53
1374	-30,75
1375	-13,43
1376	-39,17
1377	-51,35
1378	-7,34
1379	-50,41
1380	11,38
1381	-27
1382	9,51
1383	-17,17
1384	-5,47
1385	-12,96
1386	-36,83
1387	-2,66
1388	3,89
1389	-5
1390	2,02
1391	61,94
1392	-42,45
1393	-1,26
1394	-5
1395	-24,2
1396	-37,3
1397	-57,43
1398	-12,49
1399	-25,6
1400	51,64
1401	-8,75
1402	12,79
1403	-46,2
1404	19,34
1405	57,26
1406	16,53
1407	-31,22
1408	-3,13
1409	24,96
1410	-2,19
1411	-35,9
1412	-26,54
1413	46,49
1414	-7,81
1415	-30,75
1416	7,64
1417	-5,47
1418	25,42
1419	-74,28
1420	-35,43
1421	-6,41
1422	-22,32
1423	-19,98
1424	11,85
1425	16,06
1426	-25,6
1427	-1,73
1428	80,19
1429	-35,9
1430	31,04
1431	25,89
1432	86,75
1433	-105,18
1434	-65,86
1435	60,53
1436	10,91
1437	-1,73
1438	-36,37
1439	66,62
1440	-34,96
1441	41,34
1442	66,15
1443	-5,94
1444	-22,32
1445	20,74
1446	-21,39
1447	-10,62
1448	-7,81
1449	-5,47
1450	-17,64
1451	-6,88
1452	-68,67
1453	-93,01
1454	-34,96
1455	-6,41
1456	16,53
1457	-15,3
1458	-4,07
1459	60,06
1460	-55,09
1461	65,68
1462	-47,6
1463	9,98
1464	-26,07
1465	-3,13
1466	-48,07
1467	31,98
1468	-53,22
1469	-13,9
1470	-20,45
1471	69,89
1472	2,02
1473	-33,09
1474	9,51
1475	10,44
1476	-0,32
1477	40,4
1478	20,27
1479	0,61
1480	-46,66
1481	-20,45
1482	53,51
1483	-2,66
1484	-49
1485	-54,15
1486	14,66
1487	-27
1488	7,17
1489	39,94
1490	-53,22
1491	-4,53
1492	49,3
1493	15,13
1494	-56,49
1495	13,25
1496	-31,69
1497	31,51
1498	86,75
1499	67,09
1500	-59,77
1501	47,43
1502	-47,13
1503	-1,73
1504	64,75
1505	-18,11
1506	-8,28
1507	-31,22
1508	-41,98
1509	-35,43
1510	2,02
1511	-4,07
1512	121,39
1513	20,74
1514	-30,28
1515	-49
1516	20,74
1517	-18,58
1518	6,23
1519	66,15
1520	-24,2
1521	-8,28
1522	-58,84
1523	-52,75
1524	55,85
1525	-49
1526	-18,58
1527	-1,26
1528	-17,17
1529	-9,22
1530	61,94
1531	-23,73
1532	-40,11
1533	31,04
1534	-14,83
1535	38,06
1536	5,3
1537	-5,94
1538	74,58
1539	10,44
1540	-90,2
1541	-52,28
1542	-56,49
1543	3,89
1544	2,02
1545	38,53
1546	11,38
1547	-30,75
1548	-21,39
1549	6,23
1550	-29,34
1551	-17,17
1552	21,68
1553	35,25
1554	-9,68
1555	-31,22
1556	-29,81
1557	58,19
1558	48,83
1559	37,59
1560	29,64
1561	-14,83
1562	-71,47
1563	60,06
1564	48,83
1565	4,83
1566	-2,19
1567	96,58
1568	21,21
1569	7,17
1570	4,36
1571	-52,28
1572	-78,5
1573	-30,75
1574	10,44
1575	-12,49
1576	30,57
1577	2,02
1578	38,53
1579	15,13
1580	-49,47
1581	98,92
1582	25,42
1583	-118,28
1584	-20,45
1585	-29,81
1586	-6,88
1587	-68,2
1588	-38,24
1589	-81,77
1590	21,68
1591	-2,19
1592	22,62
1593	-38,24
1594	-49,47
1595	52,57
1596	33,38
1597	36,66
1598	55,38
1599	3,42
1600	10,44
1601	-11,09
1602	-51,81
1603	47,89
1604	24,96
1605	16,06
1606	29,17
1607	-64,92
1608	38,06
1609	24,96
1610	-27,47
1611	61,47
1612	10,91
1613	11,38
1614	-5,47
1615	40,87
1616	24,49
1617	32,45
1618	2,02
1619	49,3
1620	-4,07
1621	-39,64
1622	28,7
1623	13,72
1624	53,98
1625	37,13
1626	19,81
1627	-18,58
1628	29,64
1629	9,04
1630	36,66
1631	-27
1632	17,47
1633	11,85
1634	14,66
1635	-0,79
1636	8,57
1637	23,08
1638	40,87
1639	118,11
1640	-25,13
1641	3,89
1642	3,42
1643	-21,39
1644	-44,32
1645	-30,28
1646	28,7
1647	54,91
1648	-42,92
1649	-62,58
1650	85,81
1651	-19,51
1652	-5
1653	-41,05
1654	-46,2
1655	11,38
1656	-34,49
1657	-48,54
1658	-6,41
1659	-13,43
1660	31,98
1661	-43,39
1662	-17,64
1663	22,62
1664	-38,24
1665	-7,81
1666	72,23
1667	-16,24
1668	-40,11
1669	15,59
1670	23,55
1671	9,51
1672	49,3
1673	-83,64
1674	24,49
1675	12,32
1676	39,47
1677	11,38
1678	-37,77
1679	-53,22
1680	89,55
1681	27,3
1682	28,7
1683	6,7
1684	22,62
1685	32,45
1686	67,55
1687	15,13
1688	6,23
1689	-0,79
1690	-28,88
1691	-39,17
1692	-3,6
1693	-41,52
1694	-28,41
1695	2,02
1696	-5
1697	4,83
1698	31,98
1699	-5,94
1700	-7,34
1701	0,61
1702	-25,13
1703	-2,66
1704	-19,51
1705	42,28
1706	-17,17
1707	1,55
1708	3,42
1709	-30,28
1710	-43,39
1711	41,81
1712	4,36
1713	-69,13
1714	6,23
1715	13,25
1716	-38,24
1717	-40,58
1718	43,68
1719	-21,39
1720	-27,47
1721	66,15
1722	9,98
1723	7,64
1724	-57,9
1725	1,55
1726	5,76
1727	-49,94
1728	-2,66
1729	-68,2
1730	64,75
1731	-42,45
1732	-56,49
1733	-50,88
1734	30,57
1735	29,17
1736	21,21
1737	11,38
1738	42,74
1739	5,3
1740	47,89
1741	107,34
1742	-6,88
1743	39
1744	41,34
1745	2,02
1746	-22,32
1747	12,79
1748	-24,66
1749	-19,51
1750	-18,58
1751	-7,81
1752	9,51
1753	14,19
1754	30,11
1755	30,11
1756	112,96
1757	23,55
1758	23,08
1759	23,55
1760	-80,37
1761	-24,66
1762	-7,81
1763	65,21
1764	-37,77
1765	37,59
1766	9,51
1767	-72,88
1768	8,57
1769	31,04
1770	-6,41
1771	22,15
1772	110,62
1773	21,21
1774	7,17
1775	-20,92
1776	-53,22
1777	46,49
1778	4,83
1779	24,02
1780	-2,66
1781	9,51
1782	-44,32
1783	-42,45
1784	20,74
1785	10,44
1786	54,91
1787	-15,77
1788	-80,37
1789	-56,96
1790	-39,64
1791	-49
1792	27,76
1793	-22,32
1794	24,96
1795	-39,17
1796	-35,9
1797	1,08
1798	-22,32
1799	-55,56
1800	-42,92
1801	-24,2
1802	86,28
1803	19,34
1804	-17,17
1805	14,19
1806	-23,73
1807	-29,81
1808	37,13
1809	-1,26
1810	24,02
1811	-53,22
1812	2,95
1813	17,93
1814	3,89
1815	-9,22
1816	5,3
1817	-41,05
1818	0,15
1819	25,42
1820	-37,77
1821	17,47
1822	-48,07
1823	-49,94
1824	19,81
1825	41,34
1826	-52,28
1827	83,94
1828	33,38
1829	2,95
1830	-42,92
1831	-21,85
1832	55,38
1833	12,32
1834	-1,73
1835	57,26
1836	-33,09
1837	2,49
1838	-71,01
1839	72,7
1840	-2,19
1841	56,32
1842	-47,6
1843	12,32
1844	-39,17
1845	-37,77
1846	17,93
1847	-12,96
1848	-16,71
1849	21,68
1850	1,08
1851	42,74
1852	-3,6
1853	23,08
1854	2,49
1855	2,49
1856	-10,15
1857	36,19
1858	17,93
1859	70,36
1860	-20,92
1861	-8,75
1862	3,42
1863	38,06
1864	-2,66
1865	5,76
1866	58,66
1867	-1,73
1868	-29,34
1869	-47,13
1870	25,42
1871	15,59
1872	37,13
1873	4,83
1874	-5,94
1875	-24,2
1876	21,21
1877	-44,79
1878	-54,15
1879	-21,85
1880	50,7
1881	45,55
1882	54,91
1883	-20,45
1884	2,02
1885	80,19
1886	-6,41
1887	-27,94
1888	45,55
1889	3,42
1890	-17,64
1891	62,4
1892	1,55
1893	61,47
1894	34,32
1895	53,04
1896	-28,41
1897	42,28
1898	-6,41
1899	15,13
1900	-78,03
1901	-39,64
1902	6,23
1903	-13,9
1904	36,19
1905	11,85
1906	37,59
1907	-41,52
1908	-19,98
1909	-5
1910	-53,69
1911	-8,28
1912	4,36
1913	21,21
1914	-35,9
1915	30,11
1916	-53,69
1917	9,04
1918	67,09
1919	3,89
1920	3,89
1921	-112,2
1922	-24,2
1923	-32,62
1924	-20,45
1925	-16,71
1926	-56,49
1927	-55,56
1928	-31,22
1929	-14,37
1930	-5,94
1931	-22,32
1932	59,6
1933	-6,41
1934	-8,75
1935	-25,6
1936	25,42
1937	-39,17
1938	18,4
1939	-34,96
1940	-47,6
1941	83,47
1942	13,25
1943	42,28
1944	-70,54
1945	-0,32
1946	-41,52
1947	48,36
1948	45,08
1949	-6,41
1950	-20,45
1951	59,6
1952	83
1953	15,13
1954	-21,85
1955	-22,32
1956	-53,22
1957	-29,34
1958	-5,94
1959	-18,58
1960	21,21
1961	-1,73
1962	32,45
1963	23,55
1964	74,11
1965	33,38
1966	-29,81
1967	-49,47
1968	66,62
1969	-34,03
1970	-22,32
1971	-43,86
1972	-13,9
1973	36,66
1974	-4,53
1975	-13,43
1976	15,59
1977	28,23
1978	9,04
1979	-55,56
1980	-1,73
1981	-33,09
1982	-25,6
1983	39,47
1984	32,91
1985	50,7
1986	-65,86
1987	27,76
1988	31,51
1989	-94,88
1990	-20,45
1991	-88,79
1992	10,91
1993	46,49
1994	0,15
1995	50,23
1996	-10,62
1997	34,79
1998	-10,15
1999	-35,9
2000	-13,43
2001	-82,71
2002	-18,11
2003	16,53
2004	-4,07
2005	-10,62
2006	-46,66
2007	15,13
2008	-35,43
2009	19,81
2010	-32,62
2011	64,28
2012	-38,24
2013	32,91
2014	-41,52
2015	2,95
2016	-34,96
2017	15,59
2018	63,34
2019	50,23
2020	-7,34
2021	7,17
2022	-22,32
2023	-40,11
2024	43,68
2025	-24,66
2026	46,49
2027	-54,62
2028	2,02
2029	-15,77
2030	-40,11
2031	-33,09
2032	8,1
2033	4,83
2034	-23,73
2035	-13,43
2036	38,06
2037	-5
2038	-35,43
2039	11,85
2040	-95,35
2041	-4,07
2042	-16,71
2043	30,57
2044	8,57
2045	30,57
2046	30,57
2047	30,57
