Data from Subt2_15-50-18-051.txt Node
Date: Wed Apr 21 15:50:18 CEST 2021
User: au643642
Spectrometer: FLMS05507
Trigger mode: 0
Integration Time (sec): 2,300000E-2
Scans to average: 5
Electric dark correction enabled: true
Nonlinearity correction enabled: false
Boxcar width: 0
XAxis mode: Pixels
Number of Pixels in Spectrum: 2048
>>>>>Begin Spectral Data<<<<<
0	54,12
1	54,12
2	54,12
3	53,19
4	62,08
5	3,1
6	10,59
7	-11,41
8	-45,11
9	61,61
10	-39,96
11	-45,58
12	-37,16
13	28,38
14	137,92
15	-7,2
16	6,85
17	12,46
18	-39,5
19	-54,94
20	19,95
21	-20,77
22	-85,84
23	-74,6
24	8,25
25	-21,71
26	-10,01
27	87,83
28	7,78
29	-19,37
30	-49,33
31	-64,31
32	54,59
33	-6,26
34	32,12
35	-24,52
36	21,36
37	16,68
38	-1,11
39	65,36
40	-28,73
41	-17,96
42	14,8
43	8,25
44	28,85
45	-41,37
46	-15,15
47	41,49
48	-83,5
49	8,25
50	40,55
51	-32,94
52	-2,52
53	-35,75
54	13,87
55	-16,09
56	-31,07
57	11,53
58	17,14
59	80,81
60	67,23
61	-28,26
62	5,91
63	14,8
64	-17,03
65	-27,79
66	24,17
67	-124,69
68	-65,71
69	43,36
70	70,98
71	22,29
72	23,23
73	-10,47
74	-37,16
75	-70,86
76	56,93
77	51,78
78	48,51
79	-19,37
80	38,68
81	-30,6
82	30,25
83	43,36
84	44,76
85	-2,98
86	44,76
87	-27,33
88	23,23
89	4,51
90	-15,62
91	32,12
92	108,43
93	6,38
94	-39,03
95	26,97
96	-24,05
97	27,44
98	65,36
99	1,7
100	-36,22
101	-48,39
102	-26,39
103	-39,03
104	-77,88
105	8,25
106	15,27
107	-59,63
108	-39,96
109	21,36
110	-34,82
111	52,25
112	-6,26
113	28,38
114	-42,31
115	63,96
116	29,78
117	75,66
118	4,97
119	-6,73
120	0,76
121	28,38
122	-43,24
123	70,51
124	33,53
125	38,21
126	38,68
127	19,48
128	24,17
129	-13,75
130	34
131	36,8
132	-53,07
133	-30,6
134	-31,54
135	-92,39
136	-22,64
137	26,97
138	-12,81
139	-18,9
140	38,21
141	-9,54
142	53,19
143	-40,43
144	23,23
145	2,16
146	-47,45
147	-47,92
148	59,74
149	-3,92
150	-31,07
151	31,66
152	-44,65
153	20,89
154	-17,03
155	-42,31
156	-37,62
157	12
158	48,98
159	99,53
160	24,17
161	36,34
162	-94,73
163	44,29
164	-42,31
165	17,61
166	26,97
167	-28,73
168	1,23
169	29,78
170	-17,5
171	-106,44
172	-9,54
173	-60,09
174	0,29
175	75,19
176	-31,07
177	-40,9
178	-62,43
179	47,57
180	-17,5
181	-49,33
182	51,32
183	-35,28
184	-7,2
185	-21,24
186	7,31
187	-53,54
188	-68,05
189	-16,56
190	64,89
191	-0,18
192	33,53
193	-3,92
194	-34,82
195	9,65
196	-17,96
197	-17,5
198	-23,58
199	30,72
200	28,85
201	-23,58
202	48,51
203	-46,99
204	-34,82
205	40,08
206	14,8
207	-4,39
208	-11,88
209	-31,54
210	-43,24
211	-7,2
212	-31,54
213	-2,52
214	59,27
215	-17,5
216	-7,67
217	-11,88
218	25,1
219	20,89
220	20,89
221	11,06
222	81,74
223	46,64
224	4,51
225	-0,18
226	20,42
227	30,72
228	33,53
229	74,25
230	19,02
231	51,78
232	90,17
233	81,28
234	126,21
235	87,36
236	100,94
237	103,74
238	56,47
239	167,41
240	32,12
241	118,26
242	101,87
243	125,28
244	140,26
245	122
246	215,15
247	153,83
248	234,81
249	224,52
250	224,52
251	174,43
252	215,62
253	180,05
254	253,54
255	279,28
256	243,71
257	285,37
258	294,73
259	287,24
260	349,97
261	261,03
262	336,39
263	320,95
264	358,39
265	425,33
266	374,78
267	372,91
268	456,7
269	379,46
270	436,57
271	446,4
272	436,57
273	502,1
274	520,83
275	488,06
276	463,72
277	503,51
278	526,91
279	507,25
280	523,64
281	546,11
282	536,28
283	582,15
284	537,68
285	645,81
286	591,51
287	666,41
288	694,03
289	641,6
290	721,18
291	731,01
292	721,65
293	774,07
294	760,03
295	745,05
296	834,46
297	810,59
298	779,69
299	935,57
300	709,01
301	705,26
302	795,14
303	866,29
304	690,75
305	727,73
306	766,58
307	737,56
308	731,94
309	701,52
310	806,37
311	750,2
312	675,3
313	807,31
314	718,37
315	780,16
316	768,46
317	746,92
318	769,86
319	760,97
320	766,58
321	763,78
322	776,41
323	734,28
324	780,63
325	787,18
326	769,86
327	780,63
328	830,71
329	820,88
330	826,03
331	770,8
332	871,91
333	758,63
334	730,07
335	740,37
336	824,63
337	775,95
338	747,39
339	729,6
340	779,69
341	807,78
342	791,86
343	738,03
344	744,58
345	819,48
346	853,65
347	782,97
348	758,16
349	745,99
350	792,33
351	785,78
352	772,67
353	818,08
354	767,05
355	669,22
356	823,22
357	684,67
358	759,56
359	746,92
360	758,63
361	768,92
362	773,14
363	780,16
364	855,99
365	796,07
366	679,05
367	757,69
368	678,11
369	796,54
370	755,82
371	769,39
372	781,56
373	800,76
374	710,88
375	728,67
376	772,2
377	836,33
378	811,05
379	785,31
380	794,2
381	709,01
382	776,88
383	767,52
384	762,84
385	821,82
386	765,65
387	838,2
388	780,63
389	810,59
390	832,12
391	808,25
392	809,65
393	811,99
394	825,57
395	857,4
396	880,33
397	857,86
398	844,76
399	774,07
400	800,29
401	799,35
402	790,93
403	826,5
404	763,78
405	870,04
406	782,97
407	806,84
408	738,5
409	736,16
410	728,2
411	799,35
412	738,97
413	767,99
414	841,48
415	782,03
416	753,95
417	775,95
418	741,31
419	762,37
420	816,67
421	809,18
422	885,95
423	782,03
424	811,52
425	734,75
426	785,31
427	767,99
428	805,44
429	704,79
430	659,39
431	792,8
432	697,3
433	747,86
434	796,54
435	852,25
436	850,84
437	902,34
438	805,9
439	754,41
440	790,46
441	737,56
442	694,03
443	765,18
444	660,79
445	696,37
446	710,88
447	635,05
448	644,41
449	676,24
450	709,01
451	672,96
452	655,17
453	655,64
454	643,94
455	647,22
456	678,58
457	696,84
458	703,86
459	711,35
460	650,03
461	654,24
462	760,5
463	770,33
464	798,88
465	808,71
466	755,35
467	849,44
468	768,46
469	612,58
470	612,58
471	656,11
472	632,71
473	648,15
474	635,98
475	651,43
476	647,68
477	648,15
478	666,88
479	838,2
480	858,8
481	916,38
482	947,27
483	921,06
484	843,82
485	901,87
486	770,8
487	781,1
488	862,08
489	850,84
490	894,85
491	766,12
492	714,16
493	668,28
494	617,26
495	675,77
496	718,37
497	637,39
498	650,96
499	679,52
500	704,33
501	671,56
502	733,82
503	681,86
504	760,5
505	787,65
506	870,04
507	838,2
508	769,86
509	757,22
510	769,86
511	764,24
512	859,74
513	862,55
514	823,69
515	738,5
516	761,9
517	745,05
518	662,2
519	622,88
520	676,24
521	621
522	604,15
523	535,34
524	580,28
525	568,11
526	546,57
527	573,26
528	555
529	535,34
530	506,32
531	522,7
532	503,51
533	572,79
534	526,44
535	469,8
536	527,38
537	478,7
538	504,91
539	462,31
540	574,19
541	823,22
542	1080,68
543	1188,82
544	1125,15
545	766,12
546	518,02
547	338,27
548	272,26
549	331,71
550	422,99
551	422,99
552	489,93
553	512,4
554	491,34
555	452,95
556	554,06
557	538,15
558	551,72
559	535,34
560	637,85
561	629,43
562	539,08
563	564,36
564	527,38
565	489
566	564,83
567	592,45
568	594,79
569	649,09
570	694,03
571	649,56
572	545,17
573	499,76
574	661,73
575	541,42
576	607,43
577	598,53
578	608,83
579	540,96
580	570,45
581	531,59
582	511,47
583	414,57
584	515,68
585	503,04
586	500,7
587	519,89
588	510,53
589	481,51
590	527,85
591	488,53
592	473,08
593	523,64
594	527,85
595	610,7
596	659,86
597	666,41
598	601,81
599	559,21
600	469,8
601	389,29
602	381,8
603	419,72
604	357,93
605	394,44
606	477,29
607	569,04
608	652,37
609	771,73
610	851,78
611	764,24
612	597,6
613	543,3
614	492,27
615	500,23
616	426,74
617	419,25
618	370,1
619	463,25
620	468,4
621	515,21
622	527,85
623	471,68
624	430,01
625	399,12
626	361,67
627	415,04
628	422,53
629	479,63
630	459,97
631	488,06
632	521,3
633	462,78
634	431,42
635	394,44
636	379,46
637	446,4
638	378,52
639	390,23
640	408,01
641	380,86
642	475,89
643	540,96
644	524,1
645	501,17
646	541,89
647	604,15
648	518,96
649	481,04
650	496,02
651	511
652	365,88
653	445,46
654	474,02
655	505,38
656	575,13
657	508,66
658	546,57
659	775,95
660	2443,34
661	5465,91
662	7434,3
663	6995,69
664	4640,17
665	3270,02
666	2301,04
667	1490,28
668	928,55
669	642,54
670	599,94
671	481,04
672	473,08
673	495,55
674	502,57
675	445,46
676	656,58
677	897,65
678	1173,37
679	1128,9
680	1049,32
681	909,36
682	867,23
683	708,07
684	642,07
685	701,52
686	726,33
687	712,28
688	775,48
689	740,84
690	694,5
691	637,85
692	653,3
693	672,03
694	689,81
695	825,1
696	881,74
697	841,01
698	908,89
699	840,54
700	775,48
701	726,79
702	700,11
703	742,24
704	673,43
705	685,6
706	743,65
707	678,58
708	824,16
709	804,97
710	760,97
711	806,37
712	856,46
713	783,44
714	858,8
715	799,35
716	771,73
717	671,56
718	688,88
719	783,9
720	695,9
721	727,26
722	691,69
723	620,07
724	671,09
725	638,79
726	640,2
727	686,54
728	608,83
729	696,84
730	654,24
731	656,58
732	731,01
733	727,26
734	665,47
735	736,63
736	769,39
737	710,41
738	716,5
739	717,9
740	719,77
741	659,86
742	705,73
743	696,37
744	753,95
745	750,67
746	659,86
747	782,97
748	670,62
749	710,88
750	691,69
751	624,75
752	705,26
753	732,88
754	684,67
755	858,33
756	817,61
757	877,06
758	745,99
759	701,05
760	791,39
761	792,8
762	716,03
763	804,5
764	708,54
765	808,71
766	736,16
767	752,54
768	663,6
769	755,35
770	628,49
771	734,28
772	760,5
773	583,09
774	717,9
775	684,2
776	697,3
777	706,2
778	704,33
779	726,79
780	810,59
781	634,11
782	685,6
783	730,07
784	770,33
785	736,63
786	788,12
787	721,65
788	775,01
789	740,37
790	747,86
791	737,09
792	766,12
793	767,99
794	745,52
795	720,24
796	723,99
797	715,56
798	695,43
799	566,7
800	649,09
801	580,75
802	620,07
803	566,23
804	630,83
805	558,74
806	602,28
807	677,18
808	632,71
809	670,15
810	688,88
811	621,47
812	701,99
813	642,54
814	656,58
815	656,58
816	581,21
817	673,9
818	699,18
819	673,9
820	693,09
821	743,18
822	660,79
823	679,05
824	692,62
825	636,92
826	677,18
827	635,98
828	582,62
829	633,17
830	562,49
831	507,72
832	607,9
833	668,28
834	643,94
835	641,6
836	668,75
837	637,85
838	600,41
839	680,92
840	665,94
841	708,54
842	637,85
843	670,15
844	617,73
845	637,39
846	696,37
847	749,26
848	695,43
849	721,18
850	693,56
851	715,09
852	670,62
853	721,65
854	805,9
855	866,76
856	883,14
857	891,1
858	942,12
859	882,21
860	827,44
861	804,03
862	883,61
863	772,67
864	982,85
865	1088,17
866	1145,75
867	1119,07
868	996,89
869	850,38
870	835,86
871	924,34
872	1034,81
873	1024,04
874	936,97
875	977,23
876	1063,36
877	1178,99
878	1200,52
879	1159,79
880	1143,41
881	1039,96
882	1139,2
883	1296,01
884	1454,23
885	1562,83
886	1360,14
887	1290,4
888	1143,41
889	1191,16
890	1252,01
891	1082,56
892	896,25
893	851,31
894	809,65
895	693,56
896	825,1
897	914,04
898	997,83
899	1001,11
900	1096,6
901	1275,88
902	1222,52
903	1104,09
904	928,55
905	904,21
906	749,26
907	786,71
908	862,55
909	1025,92
910	1098,94
911	1235,16
912	1296,48
913	1457,51
914	1459,38
915	1375,12
916	1300,69
917	1199,58
918	1141,07
919	1101,28
920	1100,81
921	1256,22
922	1385,42
923	1502,45
924	1288,52
925	1275,88
926	1149,5
927	1113,92
928	1019,36
929	900,93
930	921,53
931	1027,32
932	1128,43
933	1568,92
934	1750,55
935	1801,1
936	1737,91
937	1462,19
938	1226,73
939	1040,43
940	962,25
941	926,68
942	876,59
943	875,18
944	957,1
945	1030,6
946	1142,47
947	1181,33
948	1144,81
949	1191,16
950	1112,98
951	1163,07
952	1001,11
953	837,27
954	768,46
955	631,3
956	750,2
957	882,21
958	1044,17
959	1065,24
960	1021,7
961	979,1
962	1003,45
963	777,35
964	713,22
965	696,37
966	717,43
967	734,28
968	711,82
969	670,62
970	720,71
971	788,12
972	592,45
973	585,43
974	608,36
975	797,01
976	810,12
977	745,05
978	611,17
979	482,44
980	564,36
981	624,75
982	739,43
983	782,03
984	766,58
985	697,3
986	631,77
987	562,49
988	481,04
989	368,22
990	384,14
991	356,52
992	462,78
993	470,27
994	459,04
995	489,93
996	395,84
997	459,97
998	422,99
999	458,57
1000	519,89
1001	378,99
1002	437,97
1003	373,84
1004	371,03
1005	370,1
1006	424,4
1007	616,79
1008	576,06
1009	481,04
1010	405,21
1011	343,88
1012	402,86
1013	312,52
1014	326,56
1015	368,69
1016	285,84
1017	346,22
1018	297,07
1019	307,84
1020	411,29
1021	312,52
1022	310,65
1023	340,61
1024	402,4
1025	344,35
1026	241,84
1027	256,82
1028	251,67
1029	282,09
1030	320,01
1031	275,54
1032	329,37
1033	257,28
1034	297,07
1035	283,5
1036	210,94
1037	254,01
1038	187,54
1039	174,9
1040	285,84
1041	191,28
1042	230,6
1043	218,43
1044	246,99
1045	156,64
1046	206,73
1047	290,05
1048	195,96
1049	228,73
1050	224,52
1051	193,62
1052	234,35
1053	254,94
1054	217,49
1055	223,58
1056	290,99
1057	310,65
1058	378,52
1059	376,18
1060	554,53
1061	3820,05
1062	18047,23
1063	29890,34
1064	34229,22
1065	26074,33
1066	17315,58
1067	12034,86
1068	7422,6
1069	4415,01
1070	2433,98
1071	1140,6
1072	616,79
1073	410,35
1074	254,47
1075	250,26
1076	209,07
1077	231,54
1078	178,17
1079	239,96
1080	203,45
1081	174,9
1082	107,96
1083	162,73
1084	202,05
1085	198,77
1086	141,19
1087	98,13
1088	122
1089	144,47
1090	158,51
1091	151,02
1092	149,62
1093	101,87
1094	151,49
1095	175,36
1096	164,13
1097	211,88
1098	177,71
1099	177,24
1100	177,71
1101	79,4
1102	158,98
1103	175,36
1104	169,28
1105	192,22
1106	209,54
1107	218,9
1108	145,87
1109	155,24
1110	196,43
1111	165,07
1112	166,94
1113	129,02
1114	119,19
1115	151,02
1116	112,64
1117	47,1
1118	184,73
1119	93,91
1120	186,6
1121	108,43
1122	147,28
1123	149,62
1124	117,32
1125	150,09
1126	140,26
1127	182,85
1128	135,11
1129	76,59
1130	185,66
1131	175,83
1132	169,28
1133	153,83
1134	82,68
1135	92,51
1136	102,81
1137	56,93
1138	88,3
1139	89,7
1140	121,53
1141	84,08
1142	105,62
1143	78,93
1144	67,23
1145	89,23
1146	140,72
1147	160,85
1148	144
1149	58,81
1150	117,79
1151	65,36
1152	56,93
1153	79,87
1154	125,28
1155	28,85
1156	151,02
1157	150,55
1158	114,51
1159	85,49
1160	42,42
1161	155,24
1162	93,45
1163	76,13
1164	188
1165	46,17
1166	43,83
1167	102,34
1168	71,91
1169	72,85
1170	61,15
1171	6,85
1172	85,96
1173	98,13
1174	91,57
1175	139,79
1176	34,46
1177	85,96
1178	147,75
1179	106,55
1180	111,7
1181	191,75
1182	65,83
1183	70,51
1184	99,53
1185	94,38
1186	99,06
1187	97,66
1188	83,62
1189	34
1190	123,87
1191	59,74
1192	39,15
1193	44,29
1194	29,78
1195	92,04
1196	113,57
1197	116,38
1198	138,38
1199	137,45
1200	82,68
1201	122,47
1202	81,74
1203	78,47
1204	22,76
1205	16,68
1206	53,66
1207	135,11
1208	52,72
1209	43,83
1210	92,04
1211	126,68
1212	143,07
1213	116,38
1214	158,51
1215	144
1216	59,74
1217	167,87
1218	145,87
1219	171,62
1220	88,3
1221	129,49
1222	75,66
1223	158,04
1224	128,55
1225	85,49
1226	138,85
1227	202,51
1228	112,64
1229	169,28
1230	138,85
1231	222,18
1232	150,55
1233	202,98
1234	244,18
1235	234,81
1236	186,13
1237	261,96
1238	163,19
1239	175,83
1240	148,68
1241	233,41
1242	138,38
1243	137,92
1244	214,69
1245	210
1246	218,9
1247	253,07
1248	189,41
1249	190,81
1250	167,41
1251	210
1252	240,43
1253	126,21
1254	119,66
1255	160,39
1256	127,62
1257	191,75
1258	203,92
1259	145,87
1260	236,22
1261	138,38
1262	72,85
1263	158,04
1264	74,72
1265	72,38
1266	64,42
1267	81,74
1268	159,45
1269	70,98
1270	122,47
1271	54,12
1272	146,34
1273	33,53
1274	85,02
1275	92,51
1276	75,19
1277	44,29
1278	81,74
1279	116,85
1280	177,24
1281	196,9
1282	220,3
1283	152,43
1284	197,37
1285	181,92
1286	165,53
1287	143,53
1288	122,47
1289	157,58
1290	85,96
1291	132,77
1292	63,96
1293	72,38
1294	99,53
1295	39,15
1296	153,36
1297	24,63
1298	124,81
1299	202,51
1300	193,15
1301	155,7
1302	163,66
1303	188
1304	173,49
1305	179,11
1306	154,77
1307	175,83
1308	90,64
1309	106,08
1310	97,66
1311	22,76
1312	150,09
1313	115,92
1314	88,76
1315	17,14
1316	153,83
1317	167,87
1318	187,54
1319	179,58
1320	210,94
1321	162,26
1322	171,15
1323	87,83
1324	73,32
1325	87,36
1326	-23,58
1327	-20,3
1328	96,72
1329	-2,52
1330	37,74
1331	56,93
1332	79,87
1333	78
1334	99,06
1335	101,4
1336	104,21
1337	101,87
1338	26,51
1339	20,89
1340	124,34
1341	78,93
1342	53,19
1343	93,45
1344	25,1
1345	104,21
1346	-46,99
1347	17,14
1348	-54,48
1349	12
1350	32,59
1351	14,34
1352	23,23
1353	34,93
1354	8,25
1355	22,29
1356	53,19
1357	7,31
1358	-48,86
1359	-13,28
1360	-20,77
1361	20,42
1362	54,12
1363	43,83
1364	4,04
1365	-18,9
1366	23,7
1367	72,38
1368	-3,92
1369	35,87
1370	-33,41
1371	35,4
1372	65,83
1373	72,38
1374	7,31
1375	-24,99
1376	-17,5
1377	-31,07
1378	45,23
1379	-22,64
1380	-29,2
1381	-21,71
1382	-7,67
1383	-4,86
1384	-17,96
1385	-1,11
1386	-35,28
1387	-17,96
1388	-18,43
1389	1,7
1390	14,8
1391	49,44
1392	-55,41
1393	-25,45
1394	37,27
1395	23,23
1396	9,19
1397	-58,22
1398	-32,01
1399	-6,73
1400	58,81
1401	12,46
1402	4,51
1403	-28,73
1404	31,66
1405	100,94
1406	33,53
1407	-2,98
1408	21,83
1409	31,66
1410	20,89
1411	4,04
1412	-27,33
1413	48,98
1414	0,76
1415	2,63
1416	41,95
1417	12,93
1418	35,4
1419	-59,16
1420	-56,35
1421	21,36
1422	-24,52
1423	3,1
1424	15,74
1425	78,93
1426	-1,58
1427	45,7
1428	90,17
1429	-9,54
1430	39,61
1431	57,87
1432	51,78
1433	-80,69
1434	-66,65
1435	59,74
1436	48,04
1437	-5,79
1438	-18,43
1439	26,04
1440	-28,26
1441	39,15
1442	75,66
1443	-12,35
1444	-2,98
1445	13,4
1446	-3,92
1447	13,4
1448	-15,15
1449	-8,6
1450	-39,5
1451	-10,94
1452	-46,52
1453	-55,88
1454	-52,14
1455	-0,64
1456	49,44
1457	-6,26
1458	3,1
1459	71,91
1460	-30,6
1461	63,02
1462	-41,37
1463	8,72
1464	-36,69
1465	-5,79
1466	-20,77
1467	5,91
1468	-74,14
1469	15,27
1470	-13,75
1471	51,32
1472	-3,45
1473	3,1
1474	7,78
1475	-24,99
1476	20,42
1477	41,02
1478	-18,43
1479	8,25
1480	-46,05
1481	12,93
1482	78,47
1483	12,93
1484	-46,99
1485	-64,77
1486	19,02
1487	-29,2
1488	8,72
1489	78
1490	-55,41
1491	39,61
1492	28,85
1493	28,85
1494	-46,99
1495	28,85
1496	0,29
1497	62,55
1498	109,83
1499	62,08
1500	-46,05
1501	40,08
1502	-49,79
1503	1,23
1504	92,51
1505	26,04
1506	25,1
1507	-2,98
1508	-16,56
1509	13,87
1510	2,16
1511	37,27
1512	85,02
1513	42,89
1514	-25,92
1515	-38,56
1516	63,02
1517	-24,52
1518	-20,3
1519	24,17
1520	-11,88
1521	-4,86
1522	-108,78
1523	-54,94
1524	50,85
1525	6,85
1526	-22,64
1527	12,93
1528	-0,64
1529	-32,94
1530	85,49
1531	-7,67
1532	-18,43
1533	6,85
1534	-28,26
1535	-13,75
1536	2,16
1537	-19,84
1538	60,21
1539	-0,64
1540	-39,03
1541	-16,56
1542	-33,41
1543	43,36
1544	11,06
1545	38,21
1546	12,46
1547	-45,58
1548	3,1
1549	1,23
1550	-59,16
1551	-10,47
1552	-6,26
1553	48,04
1554	19,95
1555	43,83
1556	7,31
1557	54,12
1558	16,68
1559	52,25
1560	93,45
1561	-5,79
1562	-26,86
1563	58,81
1564	83,15
1565	19,48
1566	-18,43
1567	82,68
1568	18,55
1569	-17,5
1570	8,72
1571	-21,71
1572	-61,5
1573	-40,9
1574	20,42
1575	-9,07
1576	37,74
1577	5,91
1578	43,36
1579	-12,81
1580	-25,45
1581	59,74
1582	31,66
1583	-124,69
1584	-16,56
1585	-63,84
1586	57,87
1587	-32,47
1588	-38,09
1589	-51,2
1590	52,25
1591	21,36
1592	38,21
1593	16,68
1594	-30,13
1595	20,42
1596	20,42
1597	-7,67
1598	13,87
1599	-7,2
1600	26,97
1601	12
1602	-66,18
1603	48,98
1604	28,38
1605	5,44
1606	4,04
1607	-49,79
1608	24,17
1609	18,55
1610	-18,43
1611	34
1612	11,53
1613	-10,01
1614	13,4
1615	26,97
1616	18,55
1617	26,97
1618	-2,98
1619	92,51
1620	12
1621	-36,22
1622	13,87
1623	30,72
1624	42,89
1625	67,7
1626	35,87
1627	6,85
1628	56
1629	2,16
1630	41,95
1631	15,27
1632	13,4
1633	23,7
1634	46,17
1635	28,85
1636	8,25
1637	9,65
1638	16,21
1639	80,81
1640	-4,86
1641	2,63
1642	24,17
1643	-48,39
1644	-32,01
1645	-36,69
1646	51,78
1647	11,53
1648	-17,5
1649	-54,94
1650	145,41
1651	6,38
1652	34
1653	12,46
1654	21,36
1655	61,15
1656	27,91
1657	-38,09
1658	-9,07
1659	11,06
1660	27,44
1661	-40,9
1662	-43,71
1663	19,02
1664	-10,94
1665	3,1
1666	42,89
1667	-11,41
1668	-9,54
1669	4,97
1670	34,93
1671	-12,35
1672	68,17
1673	-80,22
1674	26,97
1675	22,29
1676	15,74
1677	-2,98
1678	-30,6
1679	-42,77
1680	51,32
1681	62,55
1682	28,85
1683	-2,98
1684	31,19
1685	54,12
1686	53,19
1687	52,25
1688	43,36
1689	-24,99
1690	-40,9
1691	-22,18
1692	-10,01
1693	-76,01
1694	-24,99
1695	30,72
1696	-32,94
1697	1,7
1698	62,08
1699	7,31
1700	-4,39
1701	7,78
1702	-31,07
1703	-10,01
1704	1,23
1705	99,06
1706	-7,2
1707	26,97
1708	-18,9
1709	-45,58
1710	-19,37
1711	-8,13
1712	-2,52
1713	-23,58
1714	-16,09
1715	20,89
1716	36,34
1717	-43,71
1718	15,74
1719	-14,69
1720	-39,03
1721	13,87
1722	-12,81
1723	-14,22
1724	-24,52
1725	15,74
1726	-4,86
1727	-8,6
1728	37,27
1729	-29,67
1730	67,23
1731	-32,01
1732	-32,47
1733	-68,05
1734	24,17
1735	26,51
1736	23,7
1737	32,59
1738	26,97
1739	-1,58
1740	40,55
1741	104,21
1742	14,8
1743	14,8
1744	36,34
1745	13,4
1746	-12,35
1747	29,32
1748	-30,13
1749	-36,69
1750	-26,39
1751	25,57
1752	20,42
1753	31,66
1754	24,17
1755	52,72
1756	73,79
1757	9,19
1758	42,89
1759	29,78
1760	-79,29
1761	-28,26
1762	-33,41
1763	55,53
1764	-45,58
1765	20,89
1766	2,16
1767	-78,35
1768	19,48
1769	17,14
1770	-3,45
1771	68,17
1772	76,13
1773	16,21
1774	-11,41
1775	-25,45
1776	-42,77
1777	14,34
1778	-2,98
1779	24,17
1780	-15,62
1781	42,89
1782	-53,07
1783	-46,05
1784	42,42
1785	9,19
1786	11,53
1787	-36,69
1788	-65,71
1789	-65,71
1790	-30,6
1791	-29,2
1792	43,83
1793	-3,92
1794	17,61
1795	10,12
1796	-51,67
1797	-27,79
1798	-49,79
1799	-125,16
1800	-8,6
1801	-9,07
1802	61,61
1803	42,89
1804	-29,67
1805	41,49
1806	-11,88
1807	-30,6
1808	8,72
1809	-25,92
1810	76,59
1811	-6,26
1812	27,44
1813	36,34
1814	-0,18
1815	-6,26
1816	24,17
1817	-66,65
1818	-6,73
1819	-13,75
1820	-0,18
1821	34
1822	-55,88
1823	-22,18
1824	31,19
1825	40,08
1826	-27,33
1827	67,7
1828	9,65
1829	1,7
1830	-41,37
1831	-17,03
1832	73,32
1833	32,59
1834	15,74
1835	23,23
1836	-23,11
1837	30,72
1838	-70,39
1839	100
1840	-21,24
1841	41,49
1842	-32,01
1843	-5,32
1844	9,19
1845	-33,41
1846	15,74
1847	-29,67
1848	3,1
1849	-17,03
1850	-12,81
1851	8,25
1852	-5,32
1853	4,04
1854	-13,75
1855	1,7
1856	-3,92
1857	66,76
1858	74,25
1859	51,32
1860	-20,77
1861	38,68
1862	31,19
1863	-12,81
1864	-22,64
1865	25,1
1866	64,89
1867	8,72
1868	-25,92
1869	-90,52
1870	-35,75
1871	-13,28
1872	-49,79
1873	4,97
1874	-48,39
1875	-60,09
1876	-26,86
1877	-25,92
1878	-68,99
1879	-21,71
1880	46,17
1881	49,44
1882	77,06
1883	-13,28
1884	-2,52
1885	67,7
1886	48,04
1887	-36,22
1888	41,95
1889	30,25
1890	-62,43
1891	52,25
1892	-35,28
1893	68,64
1894	30,25
1895	49,91
1896	-13,75
1897	26,04
1898	18,55
1899	8,25
1900	-97,07
1901	-68,05
1902	-23,58
1903	-57,75
1904	2,16
1905	3,1
1906	37,74
1907	-45,11
1908	4,97
1909	-34,82
1910	-70,86
1911	29,78
1912	-7,67
1913	26,97
1914	-7,67
1915	19,48
1916	-27,79
1917	36,34
1918	77,53
1919	-31,54
1920	31,19
1921	-99,88
1922	-14,69
1923	-11,88
1924	-40,43
1925	-38,56
1926	-48,86
1927	-67,11
1928	-4,86
1929	-17,5
1930	-14,22
1931	-43,71
1932	40,55
1933	2,16
1934	15,74
1935	-38,09
1936	51,32
1937	-41,37
1938	20,89
1939	-17,96
1940	-76,95
1941	32,59
1942	34
1943	66,76
1944	-50,73
1945	3,57
1946	-53,07
1947	71,44
1948	5,91
1949	4,04
1950	-13,28
1951	95,79
1952	48,98
1953	-0,64
1954	-36,69
1955	-13,75
1956	-34,35
1957	-12,35
1958	-1,58
1959	-0,18
1960	50,38
1961	-0,18
1962	49,44
1963	-10,94
1964	65,83
1965	49,91
1966	-26,39
1967	-45,58
1968	65,36
1969	-25,92
1970	-11,88
1971	-37,62
1972	4,97
1973	47,57
1974	8,25
1975	-27,79
1976	17,14
1977	7,31
1978	19,48
1979	-22,64
1980	-19,84
1981	-23,11
1982	-24,52
1983	6,85
1984	48,51
1985	62,08
1986	-80,22
1987	39,61
1988	63,96
1989	-51,67
1990	2,16
1991	-82,09
1992	-10,47
1993	20,42
1994	-50,73
1995	38,68
1996	13,87
1997	32,59
1998	0,29
1999	-61,97
2000	-43,71
2001	-40,9
2002	-49,79
2003	-37,16
2004	-7,67
2005	-17,5
2006	-29,67
2007	22,76
2008	3,57
2009	18,08
2010	-15,15
2011	63,02
2012	-20,77
2013	30,72
2014	-38,56
2015	34
2016	-46,52
2017	5,91
2018	41,02
2019	65,36
2020	-32,94
2021	29,78
2022	-31,54
2023	-3,92
2024	36,34
2025	-15,15
2026	48,98
2027	-30,6
2028	49,44
2029	-4,39
2030	-41,84
2031	-7,67
2032	-21,24
2033	20,89
2034	8,72
2035	-36,69
2036	34,93
2037	-10,01
2038	-45,58
2039	0,29
2040	-105,5
2041	2,16
2042	-13,75
2043	-8,6
2044	-3,45
2045	-21,71
2046	-21,71
2047	-21,71
