Data from Subt2_15-48-50-423.txt Node
Date: Wed Apr 21 15:48:50 CEST 2021
User: au643642
Spectrometer: FLMS05507
Trigger mode: 0
Integration Time (sec): 2,300000E-2
Scans to average: 5
Electric dark correction enabled: true
Nonlinearity correction enabled: false
Boxcar width: 0
XAxis mode: Pixels
Number of Pixels in Spectrum: 2048
>>>>>Begin Spectral Data<<<<<
0	30,49
1	30,49
2	30,49
3	85,25
4	62,32
5	15,97
6	0,06
7	-12,58
8	-64,07
9	33,76
10	-22,88
11	-26,62
12	-11,18
13	10,36
14	97,89
15	-1,35
16	-7,9
17	-0,88
18	-31,77
19	-36,92
20	58,1
21	11,29
22	-95,44
23	-64,07
24	23
25	-6,03
26	16,44
27	122,23
28	37,51
29	-2,75
30	-36,92
31	-15,86
32	51,55
33	-4,62
34	15,04
35	-28,5
36	-13,98
37	23
38	-1,35
39	46,4
40	10,82
41	-37,39
42	15,97
43	44,06
44	67,93
45	17,38
46	33,29
47	23
48	-63,6
49	23,46
50	58,57
51	-19,13
52	-1,81
53	21,59
54	24,4
55	1,46
56	-24,28
57	26,74
58	13,17
59	78,23
60	49,68
61	-16,33
62	26,27
63	-11,64
64	9,89
65	-13,52
66	19,25
67	-88,41
68	-40,67
69	38,44
70	79,17
71	15,51
72	68,4
73	24,87
74	-7,43
75	-32,24
76	57,64
77	51,08
78	34,7
79	-14,45
80	39,85
81	-6,03
82	60,44
83	39,85
84	61,38
85	24,87
86	91,81
87	27,68
88	21,59
89	38,44
90	22,53
91	69,81
92	117,09
93	24,4
94	-45,82
95	51,55
96	-21,01
97	9,89
98	65,59
99	6,14
100	-16,33
101	-56,11
102	12,23
103	-18,2
104	-81,39
105	5,68
106	17,85
107	-45,82
108	-49,09
109	59,98
110	1,46
111	76,83
112	11,76
113	34,23
114	-46,75
115	60,91
116	26,74
117	84,32
118	7,08
119	-2,28
120	25,34
121	4,74
122	0,99
123	68,4
124	20,19
125	93,68
126	19,72
127	0,99
128	12,7
129	16,91
130	68,87
131	15,97
132	-40,67
133	-37,86
134	-30,37
135	-97,31
136	-27,09
137	49,21
138	38,44
139	-34,58
140	61,38
141	18,78
142	89
143	-43,48
144	59,51
145	13,17
146	-8,84
147	-40,2
148	86,19
149	39,85
150	2,4
151	0,06
152	-56,58
153	8,95
154	24,87
155	-23,35
156	26,74
157	61,38
158	54,83
159	101,17
160	62,78
161	85,25
162	-43,94
163	72,15
164	-19,6
165	27,21
166	58,57
167	-44,88
168	40,32
169	9,89
170	-10,24
171	-101,99
172	43,59
173	-23,35
174	-19,6
175	118,02
176	-14,45
177	-35,99
178	-20,54
179	54,36
180	-9,77
181	-29,43
182	37,98
183	-41,6
184	6,61
185	30,02
186	47,81
187	6,61
188	-14,45
189	21,59
190	41,25
191	-5,56
192	1,93
193	-13,98
194	16,91
195	30,95
196	-22,41
197	-14,45
198	-21,94
199	64,19
200	14,1
201	28,61
202	76,83
203	-12,58
204	-17,26
205	70,27
206	-3,22
207	23
208	-30,37
209	-11,18
210	23
211	-40,2
212	-27,09
213	-5,09
214	99,3
215	-13,05
216	26,27
217	-34,58
218	37,51
219	38,91
220	15,51
221	-2,28
222	89,47
223	24,4
224	6,14
225	-13,52
226	-13,98
227	30,95
228	28,14
229	18,78
230	3,34
231	14,57
232	64,66
233	78,23
234	80,57
235	31,89
236	60,91
237	59,04
238	10,82
239	45,93
240	-47,69
241	21,12
242	31,42
243	51,08
244	36,57
245	47,34
246	87,13
247	40,32
248	123,64
249	112,87
250	100,7
251	43,12
252	52,95
253	-15,39
254	28,14
255	42,19
256	-6,03
257	40,32
258	76,36
259	45
260	108,19
261	-25,22
262	36,57
263	22,53
264	29,55
265	70,74
266	77,3
267	106,79
268	241,13
269	441,95
270	1235,39
271	2373,83
272	3321,28
273	3225,32
274	2281,61
275	1078,58
276	482,21
277	233,64
278	177
279	60,91
280	97,89
281	113,81
282	120,36
283	61,38
284	39,38
285	125,98
286	94,15
287	134,41
288	119,43
289	63,25
290	118,96
291	152,19
292	162,49
293	172,32
294	111,94
295	148,45
296	168,11
297	179,34
298	143,3
299	271,09
300	113,34
301	162,02
302	257,52
303	279,52
304	150,32
305	133,94
306	132,53
307	151,73
308	201,34
309	138,15
310	188,24
311	123,64
312	93,21
313	185,43
314	162,02
315	283,73
316	279,05
317	485,02
318	890,87
319	1090,75
320	987,3
321	637,62
322	402,16
323	269,69
324	246,75
325	205,56
326	194,32
327	191,05
328	281,86
329	210,24
330	225,69
331	165,77
332	269,69
333	184,49
334	155,47
335	167,64
336	258,45
337	166,24
338	168,58
339	198,54
340	250,5
341	275,31
342	274,84
343	241,13
344	250,5
345	315,09
346	336,63
347	265,01
348	302,92
349	352,54
350	385,31
351	433,53
352	490,63
353	493,44
354	331,95
355	194,79
356	308,07
357	206,96
358	278,11
359	242,07
360	274,37
361	257,52
362	257,52
363	256,58
364	358,16
365	273,43
366	216,79
367	258,45
368	243,47
369	291,69
370	297,77
371	281,86
372	302,92
373	300,12
374	277,65
375	291,69
376	354,42
377	414,8
378	396,08
379	360,97
380	384,84
381	415,27
382	605,79
383	869,8
384	1804,61
385	5656,67
386	17582,63
387	30171,44
388	34314,65
389	26806,21
390	17390,24
391	10565,24
392	5697,86
393	2697,29
394	1336,97
395	798,18
396	564,13
397	429,78
398	382,03
399	317,9
400	403,1
401	381,1
402	350,2
403	390,93
404	320,71
405	337,1
406	265,94
407	294,03
408	199
409	241,13
410	209,3
411	271,56
412	205,09
413	279,52
414	313,22
415	288,41
416	281,86
417	206,49
418	185,9
419	191,05
420	215,86
421	211,64
422	271,09
423	184,49
424	217,73
425	156,41
426	208,37
427	229,43
428	215,86
429	130,66
430	169,98
431	213,98
432	136,28
433	148,45
434	193,39
435	200,41
436	235,52
437	184,49
438	210,24
439	127,38
440	168,11
441	185,43
442	191,05
443	385,31
444	336,63
445	343,18
446	336,63
447	265,48
448	134,41
449	241,13
450	240,2
451	252,84
452	197,13
453	238,79
454	239,73
455	245,35
456	230,37
457	238,33
458	246,28
459	213,98
460	184,96
461	233,64
462	316,03
463	358,16
464	400,76
465	450,38
466	505,15
467	664,3
468	633,88
469	514,98
470	435,4
471	392,33
472	397,01
473	628,73
474	2188,93
475	6756,25
476	10136,45
477	10606,9
478	7170,52
479	4483,12
480	2771,25
481	1997,47
482	2303,15
483	2859,73
484	2879,85
485	2142,12
486	1334,63
487	830,01
488	620,77
489	430,25
490	400,76
491	375,01
492	279,52
493	286,54
494	230,37
495	241,13
496	322,12
497	282,33
498	238,33
499	334,76
500	444,29
501	594,09
502	703,62
503	544,47
504	485,49
505	356,29
506	393,74
507	427,91
508	493,44
509	620,3
510	869,8
511	926,91
512	922,7
513	764,48
514	598,3
515	482,21
516	413,4
517	326,8
518	253,77
519	267,35
520	251,9
521	212,11
522	268,75
523	259,39
524	398,89
525	481,27
526	488,76
527	516,85
528	447,57
529	340,37
530	245,81
531	263,13
532	250,96
533	345,52
534	287,48
535	223,35
536	281,86
537	189,64
538	206,96
539	227,56
540	409,18
541	614,22
542	918,48
543	1679,16
544	3499,16
545	11359,15
546	23133,45
547	28116,45
548	23698,45
549	14591,89
550	9469,87
551	5976,38
552	3434,56
553	1532,64
554	642,77
555	322,58
556	313,69
557	247,69
558	173,26
559	146,58
560	184,02
561	164,83
562	134,41
563	163,9
564	113,34
565	76,36
566	116,62
567	119,89
568	72,15
569	135,34
570	130,19
571	134,41
572	41,25
573	46,4
574	176,53
575	69,34
576	116,15
577	61,85
578	87,13
579	59,04
580	103,51
581	155,94
582	133,94
583	73,08
584	106,79
585	55,76
586	64,66
587	39,38
588	52,95
589	50,61
590	73,55
591	11,29
592	3,8
593	-4,15
594	7,08
595	32,36
596	13,17
597	-3,69
598	-1,35
599	37,98
600	30,95
601	19,72
602	38,91
603	99,77
604	8,48
605	-2,28
606	65,13
607	79,17
608	-17,73
609	-37,39
610	47,81
611	40,32
612	24,87
613	23,93
614	-52,37
615	30,02
616	-3,22
617	-26,62
618	-133,35
619	23,93
620	-14,92
621	-2,28
622	7,55
623	12,7
624	-8,37
625	66,06
626	-16,79
627	54,36
628	-17,73
629	-12,58
630	-15,39
631	23,93
632	41,72
633	41,25
634	27,68
635	2,4
636	-20,54
637	86,66
638	9,42
639	-19,13
640	-7,9
641	-22,41
642	34,23
643	115,21
644	29,55
645	-5,09
646	22,06
647	92,28
648	65,13
649	-6,49
650	35,17
651	23,93
652	-84,67
653	-1,35
654	3,8
655	55,76
656	94,62
657	8,48
658	-13,05
659	49,68
660	151,26
661	233,64
662	341,78
663	299,65
664	98,36
665	43,59
666	49,21
667	12,23
668	-27,56
669	-65,48
670	41,25
671	-24,75
672	30,02
673	544,94
674	995,72
675	1209,65
676	986,36
677	651,66
678	583,79
679	294,03
680	253,3
681	141,43
682	218,66
683	63,25
684	74,96
685	148,45
686	130,66
687	145,64
688	157,81
689	124,58
690	151,73
691	171,85
692	177
693	221,01
694	219,13
695	284,67
696	221,94
697	141,43
698	179,34
699	222,41
700	274,84
701	241,13
702	213,05
703	250,5
704	185,9
705	218,2
706	292,16
707	262,2
708	297,77
709	288,88
710	280,92
711	305,73
712	310,41
713	213,52
714	294,97
715	335,22
716	298,24
717	256,58
718	248,16
719	342,71
720	250,5
721	299,18
722	272,03
723	253,77
724	335,22
725	308,07
726	258,45
727	275,77
728	280,45
729	301,05
730	335,22
731	301,99
732	352,08
733	371,27
734	326,8
735	358,63
736	430,25
737	342,24
738	348,8
739	332,41
740	306,2
741	278,58
742	326,33
743	351,61
744	423,7
745	396,55
746	278,58
747	363,78
748	324,92
749	355,35
750	386,25
751	316,97
752	366,59
753	422,29
754	331,95
755	428,38
756	336,63
757	374,54
758	276,24
759	276,71
760	398,42
761	399,35
762	301,05
763	379,23
764	316,03
765	414,33
766	363,31
767	386,72
768	313,69
769	406,38
770	278,58
771	411,06
772	343,65
773	283,26
774	381,1
775	391,86
776	390,46
777	340,84
778	328,2
779	415,27
780	462,08
781	381,1
782	389,99
783	403,1
784	418,55
785	390,93
786	403,57
787	322,12
788	400,76
789	409,65
790	393,74
791	382,97
792	331,01
793	316,5
794	392,33
795	412,93
796	502,81
797	618,43
798	999,47
799	7541,26
800	31055,22
801	46673,62
802	49302,51
803	32733,39
804	20795,25
805	13160,42
806	7883,92
807	4418,05
808	2270,85
809	1110,41
810	756,99
811	531,36
812	508,89
813	437,27
814	455,06
815	447,1
816	371,74
817	415,27
818	387,65
819	321,65
820	313,22
821	357,69
822	337,56
823	380,16
824	420,89
825	379,69
826	399,35
827	412,46
828	362,84
829	392,33
830	397,48
831	338,97
832	412,46
833	362,37
834	396,55
835	375,95
836	402,16
837	401,69
838	317,44
839	401,23
840	384,37
841	394,67
842	343,65
843	334,29
844	355,82
845	343,18
846	411,52
847	426,97
848	301,05
849	346,46
850	361,44
851	421,82
852	356,76
853	386,25
854	352,54
855	309,48
856	317,9
857	306,2
858	384,37
859	383,44
860	321,65
861	340,84
862	396,55
863	279,52
864	344,12
865	330,07
866	290,75
867	334,76
868	366,59
869	363,31
870	350,2
871	522,93
872	2435,15
873	6367,25
874	8528,03
875	8091,29
876	5277,5
877	5904,29
878	9266,71
879	11015,09
880	9859,33
881	6000,26
882	3841,81
883	2426,26
884	1553,24
885	984,02
886	589,41
887	452,25
888	293,09
889	313,69
890	294,97
891	313,22
892	241,13
893	259,39
894	245,35
895	191,05
896	267,35
897	315,09
898	300,58
899	268,28
900	260,79
901	360,97
902	304,8
903	305,26
904	239,73
905	294,5
906	286,54
907	316,03
908	299,65
909	325,86
910	338,03
911	369,4
912	320,24
913	326,33
914	324,46
915	286,54
916	301,05
917	263,6
918	302,92
919	331,95
920	284,67
921	278,11
922	226,62
923	314,16
924	220,07
925	345,05
926	299,18
927	292,16
928	283,73
929	192,45
930	267,35
931	321,18
932	220,54
933	313,22
934	368,93
935	391,86
936	399,82
937	367,99
938	376,42
939	391,4
940	346,93
941	299,65
942	386,25
943	307,6
944	249,56
945	238,33
946	328,67
947	249,56
948	243,47
949	281,86
950	165,3
951	298,71
952	186,83
953	227,56
954	250,96
955	254,71
956	277,18
957	271,56
958	337,56
959	322,12
960	234,58
961	172,32
962	251,43
963	181,68
964	251,43
965	254,71
966	221,47
967	264,07
968	229,9
969	211,64
970	241,13
971	238,79
972	161,09
973	185,43
974	205,56
975	258,92
976	181,68
977	199,94
978	214,45
979	207,9
980	249,56
981	177,94
982	195,26
983	198,07
984	211,17
985	169,98
986	201,81
987	213,98
988	182,15
989	148,45
990	224,28
991	186,83
992	231,77
993	164,36
994	125,51
995	182,15
996	101,64
997	155,94
998	129,26
999	140,49
1000	198,07
1001	110,53
1002	190,11
1003	220,07
1004	240,2
1005	129,26
1006	85,72
1007	191,05
1008	167,64
1009	138,62
1010	121,77
1011	164,83
1012	206,03
1013	185,43
1014	151,73
1015	204,15
1016	161,56
1017	177,94
1018	128,32
1019	164,36
1020	237,39
1021	183,09
1022	169,51
1023	183,56
1024	265,94
1025	158,75
1026	168,11
1027	188,24
1028	260,79
1029	242,07
1030	235,05
1031	150,32
1032	160,15
1033	122,7
1034	122,7
1035	128,32
1036	94,62
1037	133,94
1038	79,17
1039	94,62
1040	175,13
1041	124,58
1042	148,45
1043	134,41
1044	127,85
1045	89,47
1046	162,49
1047	169,98
1048	134,41
1049	69,34
1050	143,3
1051	108,66
1052	162,02
1053	115,21
1054	92,28
1055	67,47
1056	132,53
1057	192,92
1058	243,47
1059	134,87
1060	149,38
1061	215,39
1062	591,75
1063	825,33
1064	1025,68
1065	807,54
1066	477,06
1067	327,73
1068	257,52
1069	225,69
1070	223,81
1071	133,47
1072	127,85
1073	154,07
1074	89,94
1075	137,68
1076	115,68
1077	126,45
1078	58,57
1079	126,92
1080	81,51
1081	43,59
1082	64,19
1083	45,93
1084	104,91
1085	149,85
1086	122,23
1087	64,19
1088	94,62
1089	203,69
1090	225,22
1091	337,56
1092	361,44
1093	268,28
1094	204,62
1095	197,13
1096	206,49
1097	173,73
1098	103,04
1099	122,7
1100	184,96
1101	106,79
1102	133,94
1103	136,75
1104	168,58
1105	185,43
1106	210,24
1107	225,22
1108	155
1109	217,73
1110	294,03
1111	223,81
1112	179,81
1113	140,96
1114	105,38
1115	133
1116	91,81
1117	23,93
1118	116,15
1119	98,36
1120	130,66
1121	64,19
1122	123,64
1123	91,81
1124	67,47
1125	92,28
1126	76,83
1127	161,09
1128	100,7
1129	31,42
1130	150,32
1131	129,26
1132	81,98
1133	141,89
1134	66,06
1135	71,68
1136	81,04
1137	109,6
1138	130,66
1139	163,9
1140	235,98
1141	176,07
1142	176,07
1143	105,38
1144	75,89
1145	103,51
1146	252,37
1147	342,24
1148	302,46
1149	206,96
1150	204,15
1151	172,79
1152	132,53
1153	125,04
1154	158,28
1155	77,76
1156	151,26
1157	163,9
1158	195,73
1159	932,06
1160	3040,88
1161	4911,91
1162	5390,78
1163	3906,41
1164	2956,62
1165	2113,56
1166	1554,17
1167	947,04
1168	456,93
1169	243,94
1170	133,47
1171	37,98
1172	87,59
1173	123,17
1174	81,04
1175	192,45
1176	106,32
1177	145,64
1178	234,11
1179	159,21
1180	118,96
1181	181,68
1182	100,23
1183	122,23
1184	797,24
1185	2384,13
1186	3701,38
1187	4093,66
1188	3072,25
1189	2205,31
1190	1763,42
1191	1270,97
1192	725,62
1193	360,97
1194	149,85
1195	160,15
1196	141,43
1197	108,66
1198	160,15
1199	103,98
1200	129,72
1201	116,62
1202	97,89
1203	73,08
1204	188,24
1205	351,61
1206	510,76
1207	553,83
1208	396,08
1209	288,41
1210	225,69
1211	189,17
1212	154,53
1213	66,53
1214	123,17
1215	71,21
1216	3,34
1217	49,68
1218	56,7
1219	147,04
1220	75,89
1221	98,36
1222	30,49
1223	122,23
1224	69,81
1225	70,74
1226	82,91
1227	91,81
1228	20,19
1229	86,66
1230	19,25
1231	64,19
1232	73,55
1233	49,68
1234	111,47
1235	359,56
1236	794,44
1237	1175,01
1238	1121,18
1239	880,57
1240	601,58
1241	580,04
1242	326,8
1243	195,26
1244	167,17
1245	112,87
1246	151,26
1247	176,07
1248	94,62
1249	99,77
1250	74,02
1251	133
1252	154,07
1253	79,64
1254	77,76
1255	96,96
1256	55,76
1257	134,41
1258	110,06
1259	124,58
1260	177,47
1261	227,56
1262	778,52
1263	3119,52
1264	5320,1
1265	6394,4
1266	5264,39
1267	3903,6
1268	3001,56
1269	2092,97
1270	1416,08
1271	690,98
1272	447,57
1273	132,06
1274	133
1275	136,75
1276	123,64
1277	90,87
1278	108,19
1279	107,26
1280	129,26
1281	92,28
1282	140,49
1283	54,83
1284	119,43
1285	174,66
1286	141,89
1287	89,47
1288	74,02
1289	175,13
1290	133
1291	284,2
1292	2456,68
1293	9321,94
1294	15614,71
1295	20040,19
1296	20651,07
1297	19692,39
1298	17485,73
1299	12783,13
1300	8456,41
1301	5539,17
1302	3388,22
1303	1873,42
1304	933
1305	490,17
1306	257,52
1307	232,71
1308	98,36
1309	113,34
1310	85,72
1311	5,21
1312	112,87
1313	76,36
1314	46,87
1315	-14,92
1316	125,51
1317	94,15
1318	87,13
1319	62,32
1320	104,45
1321	120,83
1322	149,38
1323	139,09
1324	441,02
1325	4051,53
1326	12810,28
1327	19728,43
1328	21465,58
1329	16681,52
1330	11888,58
1331	8840,73
1332	6110,73
1333	3660,19
1334	1939,43
1335	994,32
1336	496,72
1337	300,12
1338	118,49
1339	84,79
1340	92,74
1341	94,15
1342	81,51
1343	62,78
1344	48,74
1345	84,32
1346	-47,69
1347	560,85
1348	2664,06
1349	4907,23
1350	6122,43
1351	5320,56
1352	3915,31
1353	2754,4
1354	2031,64
1355	1307,01
1356	815,03
1357	387,65
1358	137,68
1359	106,79
1360	37,04
1361	36,57
1362	85,72
1363	30,02
1364	4,27
1365	44,06
1366	-11,64
1367	54,36
1368	32,83
1369	27,21
1370	-52,84
1371	-32,24
1372	13,63
1373	48,27
1374	-34,11
1375	-18,2
1376	-33,65
1377	-55,18
1378	-5,09
1379	-41,13
1380	22,53
1381	-31,3
1382	18,31
1383	-11,18
1384	1,46
1385	36,1
1386	-0,41
1387	27,68
1388	37,04
1389	29,55
1390	29,08
1391	55,76
1392	-6,96
1393	-42,54
1394	18,31
1395	-6,49
1396	12,23
1397	-53,31
1398	-5,09
1399	2,4
1400	93,68
1401	32,83
1402	8,48
1403	28,14
1404	767,29
1405	2519,41
1406	3938,71
1407	4378,73
1408	3509,46
1409	2471,66
1410	1689,93
1411	1145,98
1412	777,58
1413	561,79
1414	291,22
1415	134,41
1416	110,53
1417	69,81
1418	176,53
1419	715,79
1420	1964,7
1421	3743,51
1422	6066,73
1423	7295,51
1424	7079,24
1425	5286,86
1426	3656,44
1427	2448,26
1428	1710,52
1429	1082,79
1430	759,8
1431	450,38
1432	274,37
1433	20,19
1434	-32,24
1435	124,58
1436	86,19
1437	46,87
1438	30,95
1439	81,04
1440	13,17
1441	73,55
1442	139,55
1443	235,05
1444	1611,75
1445	3727,13
1446	5770,88
1447	10163,6
1448	15140,52
1449	18385,9
1450	17336,87
1451	11861,89
1452	7497,73
1453	5102,43
1454	3550,65
1455	2408
1456	1585,54
1457	861,38
1458	462,08
1459	243,01
1460	124,58
1461	141,89
1462	5,68
1463	77,3
1464	14,57
1465	21,59
1466	25,34
1467	36,57
1468	-32,71
1469	53,89
1470	-17,73
1471	110,06
1472	15,97
1473	31,89
1474	0,99
1475	-7,43
1476	19,25
1477	48,27
1478	39,85
1479	4,27
1480	-54,71
1481	9,42
1482	56,23
1483	54,36
1484	23,93
1485	459,27
1486	1625,33
1487	2386,47
1488	2569,5
1489	1957,21
1490	1179,69
1491	813,16
1492	600,17
1493	456,46
1494	305,73
1495	217,26
1496	108,19
1497	91,81
1498	159,68
1499	86,66
1500	-28,5
1501	72,15
1502	-29,9
1503	59,51
1504	93,21
1505	21,12
1506	10,82
1507	1,46
1508	-24,28
1509	-4,15
1510	7,55
1511	8,02
1512	98,36
1513	47,81
1514	-23,81
1515	-21,94
1516	36,57
1517	-19,6
1518	-35,52
1519	55,76
1520	32,36
1521	65,59
1522	622,17
1523	2363,53
1524	3763,17
1525	4051,99
1526	3477,63
1527	4993,36
1528	6687,44
1529	7577,78
1530	6102,77
1531	3756,15
1532	2413,15
1533	1689,46
1534	1230,71
1535	984,02
1536	679,75
1537	412,46
1538	294,97
1539	137,21
1540	10,82
1541	8,02
1542	11,76
1543	59,04
1544	32,83
1545	76,83
1546	36,1
1547	-57,52
1548	-2,75
1549	62,78
1550	7,55
1551	138,15
1552	765,88
1553	1471,79
1554	1742,82
1555	1514,85
1556	903,04
1557	639,02
1558	463,02
1559	392,33
1560	329,61
1561	159,68
1562	85,25
1563	141,89
1564	127,38
1565	20,19
1566	22,06
1567	96,02
1568	50,15
1569	-35,05
1570	22,53
1571	-36,92
1572	-61,26
1573	-36,92
1574	23,46
1575	-18,67
1576	53,42
1577	31,89
1578	55,76
1579	27,21
1580	-44,41
1581	80,1
1582	47,34
1583	-122,59
1584	-23,35
1585	-22,88
1586	50,15
1587	-9,77
1588	-54,24
1589	-56,58
1590	135,81
1591	227,56
1592	310,41
1593	262,2
1594	123,64
1595	137,21
1596	143,77
1597	82,91
1598	65,13
1599	32,83
1600	72,62
1601	28,14
1602	-20,07
1603	69,34
1604	24,87
1605	17,38
1606	43,59
1607	-44,88
1608	37,98
1609	27,68
1610	-63,14
1611	46,87
1612	46,4
1613	48,74
1614	4,74
1615	60,91
1616	30,02
1617	27,21
1618	-4,15
1619	68,87
1620	-0,88
1621	-11,64
1622	45
1623	15,51
1624	36,1
1625	23
1626	-2,28
1627	-1,81
1628	29,55
1629	43,59
1630	55,3
1631	-16,79
1632	19,25
1633	1,46
1634	30,95
1635	26,74
1636	5,68
1637	15,51
1638	55,3
1639	123,64
1640	-4,15
1641	-5,09
1642	15,04
1643	-8,37
1644	-13,52
1645	-11,64
1646	17,85
1647	81,98
1648	-19,6
1649	-72,5
1650	99,3
1651	-13,05
1652	9,42
1653	-18,2
1654	15,04
1655	25,8
1656	-38,33
1657	-67,35
1658	-7,9
1659	23,93
1660	37,98
1661	-58,92
1662	-29,9
1663	23,93
1664	-46,75
1665	-15,39
1666	59,98
1667	-53,77
1668	-31,77
1669	12,23
1670	17,38
1671	24,87
1672	59,51
1673	-87,01
1674	33,29
1675	3,34
1676	24,4
1677	-0,41
1678	-38,79
1679	-28,03
1680	69,34
1681	51,08
1682	39,85
1683	7,08
1684	46,4
1685	53,42
1686	52,49
1687	31,42
1688	12,7
1689	22,06
1690	-8,84
1691	0,99
1692	17,85
1693	-24,75
1694	8,02
1695	13,63
1696	-13,98
1697	13,17
1698	68,4
1699	6,61
1700	-3,69
1701	-5,56
1702	-33,18
1703	-7,43
1704	-35,99
1705	96,02
1706	-1,81
1707	20,19
1708	38,91
1709	24,4
1710	276,71
1711	1053,77
1712	1911,81
1713	2151,01
1714	2100,46
1715	1557,92
1716	1230,71
1717	944,23
1718	869,33
1719	712,99
1720	531,36
1721	513,1
1722	318,37
1723	199,47
1724	106,32
1725	77,76
1726	43,59
1727	-7,43
1728	26,27
1729	-30,84
1730	111,47
1731	2,87
1732	-29,9
1733	-30,84
1734	73,08
1735	46,87
1736	85,25
1737	61,85
1738	145,17
1739	253,77
1740	434,93
1741	477,53
1742	341,78
1743	269,22
1744	239,26
1745	173,73
1746	122,23
1747	154,53
1748	65,13
1749	52,02
1750	84,32
1751	55,76
1752	57,17
1753	80,57
1754	-14,92
1755	20,66
1756	85,25
1757	51,55
1758	48,74
1759	43,12
1760	-72,97
1761	-18,67
1762	-42,54
1763	77,76
1764	-36,45
1765	31,89
1766	26,74
1767	-65,94
1768	11,29
1769	36,1
1770	-36,45
1771	46,87
1772	102,11
1773	57,17
1774	21,12
1775	14,1
1776	-17,26
1777	60,91
1778	51,55
1779	64,66
1780	0,99
1781	21,59
1782	-8,37
1783	-67,35
1784	25,8
1785	40,32
1786	16,91
1787	-19,13
1788	-65,94
1789	-60,33
1790	0,99
1791	-13,05
1792	40,78
1793	-5,56
1794	33,29
1795	-11,18
1796	2,4
1797	15,97
1798	-26,62
1799	-35,05
1800	-51,43
1801	-18,2
1802	67,47
1803	23,46
1804	-16,79
1805	-1,81
1806	-22,88
1807	-46,75
1808	1,93
1809	-8,37
1810	47,34
1811	-19,13
1812	24,87
1813	12,7
1814	27,21
1815	-9,3
1816	43,59
1817	-21,01
1818	0,53
1819	8,95
1820	-5,09
1821	41,25
1822	-64,54
1823	-11,18
1824	40,78
1825	38,44
1826	-50,97
1827	74,02
1828	25,8
1829	-7,43
1830	-21,47
1831	-29,43
1832	40,78
1833	14,57
1834	-2,28
1835	60,91
1836	-48,16
1837	-4,15
1838	-71,09
1839	41,72
1840	-32,24
1841	74,96
1842	-46,75
1843	-15,39
1844	-51,9
1845	-26,62
1846	14,57
1847	0,99
1848	-16,33
1849	0,53
1850	-26,62
1851	29,55
1852	-13,05
1853	25,34
1854	-41,6
1855	8,02
1856	17,85
1857	69,81
1858	99,3
1859	167,64
1860	128,32
1861	186,37
1862	228,49
1863	155,47
1864	53,89
1865	108,66
1866	125,98
1867	90,4
1868	60,91
1869	-15,39
1870	3,8
1871	24,4
1872	-0,41
1873	8,48
1874	11,76
1875	-54,71
1876	-28,03
1877	-4,15
1878	-57,05
1879	-28,96
1880	64,19
1881	56,23
1882	68,87
1883	3,8
1884	-5,56
1885	74,02
1886	31,42
1887	-6,49
1888	58,57
1889	32,83
1890	-7,43
1891	8,48
1892	-21,94
1893	106,79
1894	39,38
1895	62,78
1896	0,53
1897	59,98
1898	23,46
1899	56,23
1900	-56,58
1901	-40,2
1902	20,66
1903	-11,18
1904	37,04
1905	10,82
1906	35,63
1907	-27,56
1908	-36,92
1909	-27,09
1910	-50,97
1911	17,38
1912	14,1
1913	68,87
1914	-6,03
1915	42,19
1916	-31,77
1917	53,89
1918	96,02
1919	13,17
1920	49,68
1921	-72,5
1922	-2,28
1923	-8,37
1924	-13,98
1925	-12,58
1926	-50,03
1927	-60,33
1928	-12,11
1929	0,99
1930	-10,24
1931	-55,18
1932	59,98
1933	-30,84
1934	39,38
1935	-26,16
1936	44,06
1937	-16,79
1938	18,31
1939	-28,96
1940	-80,92
1941	81,51
1942	29,55
1943	58,1
1944	-67,82
1945	20,66
1946	-14,45
1947	48,74
1948	46,4
1949	8,02
1950	-13,52
1951	89,47
1952	66,06
1953	6,61
1954	-27,09
1955	-32,71
1956	-49,56
1957	-11,18
1958	17,85
1959	-3,69
1960	26,74
1961	9,42
1962	50,15
1963	31,42
1964	54,83
1965	57,64
1966	-63,14
1967	-65,01
1968	70,74
1969	-38,79
1970	11,76
1971	11,29
1972	-35,99
1973	65,59
1974	0,99
1975	4,27
1976	64,19
1977	47,34
1978	23,46
1979	-20,54
1980	-12,11
1981	3,8
1982	-6,03
1983	-2,75
1984	44,53
1985	70,27
1986	-44,41
1987	43,12
1988	30,95
1989	-62,67
1990	-18,67
1991	-53,31
1992	-11,18
1993	61,38
1994	5,68
1995	45,46
1996	10,36
1997	68,4
1998	9,89
1999	-30,37
2000	-3,22
2001	-61,26
2002	-3,22
2003	-2,75
2004	0,53
2005	1,93
2006	58,57
2007	45,46
2008	-3,22
2009	35,17
2010	-12,11
2011	79,17
2012	-11,18
2013	52,49
2014	-41,13
2015	58,57
2016	-41,13
2017	32,36
2018	63,25
2019	29,08
2020	2,87
2021	29,55
2022	12,7
2023	7,55
2024	60,91
2025	-1,35
2026	68,4
2027	-19,13
2028	11,76
2029	0,06
2030	-50,03
2031	2,87
2032	-16,33
2033	20,66
2034	-31,3
2035	-18,67
2036	34,23
2037	55,76
2038	-44,88
2039	26,74
2040	-73,9
2041	-9,3
2042	9,89
2043	33,76
2044	21,12
2045	12,23
2046	12,23
2047	12,23
