Data from Subt2_15-45-00-541.txt Node
Date: Wed Apr 21 15:45:00 CEST 2021
User: au643642
Spectrometer: FLMS05507
Trigger mode: 0
Integration Time (sec): 2,300000E-2
Scans to average: 5
Electric dark correction enabled: true
Nonlinearity correction enabled: false
Boxcar width: 0
XAxis mode: Pixels
Number of Pixels in Spectrum: 2048
>>>>>Begin Spectral Data<<<<<
0	29,61
1	29,61
2	29,61
3	61,91
4	49,74
5	7,14
6	17,91
7	-8,78
8	-60,74
9	10,42
10	11,35
11	-56,52
12	-31,25
13	-3,63
14	96,08
15	22,12
16	2,46
17	20,25
18	-12,05
19	-44,35
20	29,61
21	14,63
22	-108,95
23	-77,59
24	-1,76
25	-0,82
26	-7,84
27	126,04
28	23,99
29	-4,56
30	-38,27
31	18,37
32	50,67
33	30,08
34	-8,31
35	-4,1
36	13,69
37	37,1
38	17,91
39	37,1
40	-7,37
41	-28,44
42	17,44
43	-8,31
44	51,14
45	2,93
46	39,44
47	77,82
48	-28,91
49	35,69
50	67,52
51	-43,89
52	-14,86
53	1,52
54	39,91
55	-9,71
56	-10,18
57	29,14
58	15,1
59	74,08
60	56,29
61	-6,9
62	13,22
63	-1,76
64	-26,57
65	13,69
66	19,31
67	-95,38
68	-65,89
69	62,84
70	85,78
71	1,52
72	44,59
73	20,25
74	-3,16
75	-54,18
76	53,48
77	57,23
78	20,71
79	1,99
80	7,61
81	7,14
82	54,89
83	10,42
84	53,01
85	-2,22
86	78,29
87	-12,99
88	3,86
89	21,65
90	-5,03
91	54,42
92	129,31
93	10,88
94	-35,46
95	83,91
96	-7,84
97	66,59
98	39,44
99	1,05
100	1,52
101	-48,1
102	20,25
103	-2,69
104	-46,69
105	17,44
106	13,69
107	-11,59
108	-58,86
109	74,08
110	-9,25
111	70,33
112	-6,44
113	2,46
114	-34,99
115	60,5
116	47,4
117	110,59
118	37,1
119	30,54
120	9,48
121	25,39
122	5,73
123	87,18
124	-12,05
125	75,01
126	71,27
127	12,76
128	2,93
129	35,69
130	57,23
131	34,76
132	-5,5
133	-8,78
134	-9,71
135	-101,93
136	19,78
137	52,55
138	41,78
139	16,97
140	33,35
141	-17,2
142	61,44
143	-83,21
144	75,01
145	-1,29
146	-10,65
147	-14,39
148	48,33
149	68,46
150	3,39
151	0,59
152	-36,4
153	47,4
154	31,48
155	-35,46
156	-46,69
157	28,67
158	84,38
159	93,74
160	39,44
161	101,7
162	-80,4
163	66,12
164	-11,12
165	10,42
166	32,88
167	-49,03
168	13,22
169	27,27
170	-0,35
171	-58,86
172	54,89
173	-51,84
174	8,07
175	87,65
176	0,59
177	-35,93
178	-27,97
179	47,4
180	-16,27
181	-64,95
182	38,5
183	-44,82
184	23,99
185	6,67
186	50,67
187	-9,71
188	-27,97
189	8,54
190	67,99
191	45,52
192	41,78
193	10,88
194	10,42
195	23,05
196	-28,91
197	-5,03
198	2,46
199	28,67
200	3,86
201	14,63
202	46,46
203	-42,95
204	-8,31
205	75,01
206	19,31
207	9,01
208	-25,63
209	-44,35
210	19,31
211	-49,97
212	-22,82
213	-31,71
214	50,67
215	25,86
216	-14,86
217	0,59
218	21,65
219	26,33
220	59,57
221	16,97
222	74,08
223	36,16
224	-10,65
225	-27,5
226	-23,29
227	-5,5
228	21,65
229	65,65
230	-21,42
231	16,5
232	59,57
233	22,12
234	72,67
235	31,01
236	21,65
237	14,63
238	39,91
239	58,16
240	-34,52
241	19,31
242	29,61
243	62,38
244	23,05
245	46,46
246	68,46
247	28,2
248	38,5
249	50,67
250	53,48
251	5,27
252	11,82
253	-7,37
254	4,8
255	9,48
256	-44,35
257	10,42
258	46,93
259	-3,16
260	46,93
261	-72,44
262	7,61
263	-25,63
264	-25,16
265	48,8
266	7,14
267	7,14
268	44,12
269	-1,76
270	-24,22
271	-16,27
272	-36,86
273	-2,69
274	56,29
275	-17,2
276	-41,08
277	16,97
278	56,29
279	-34,99
280	48,33
281	-1,29
282	-4,1
283	3,86
284	-59,8
285	41,31
286	-21,42
287	18,37
288	-6,9
289	-23,29
290	5,27
291	-7,37
292	10,42
293	25,39
294	-37,33
295	32,42
296	12,29
297	39,91
298	-16,27
299	120,42
300	-45,76
301	-25,16
302	18,84
303	109,65
304	-20,01
305	-12,05
306	0,12
307	5,73
308	14,63
309	-5,5
310	31,95
311	-5,97
312	-63,08
313	51,61
314	9,95
315	41,31
316	-11,59
317	-28,91
318	-12,52
319	12,29
320	-14,39
321	12,29
322	20,71
323	0,12
324	43,18
325	130,72
326	77,82
327	61,44
328	117,61
329	40,37
330	37,57
331	-5,97
332	87,65
333	13,69
334	13,22
335	104,5
336	208,42
337	107,78
338	60,03
339	10,42
340	39,44
341	104,04
342	222
343	197,66
344	287,07
345	345,58
346	357,28
347	370,86
348	333,88
349	236,98
350	103,57
351	97,02
352	81,57
353	111,99
354	38,5
355	2,93
356	182,68
357	105,44
358	244,94
359	293,62
360	222,94
361	157,4
362	67,06
363	38,03
364	74,55
365	12,76
366	-53,25
367	-6,9
368	-43,89
369	16,03
370	0,12
371	34,76
372	58,16
373	111,06
374	170,98
375	244
376	274,43
377	279,58
378	194,85
379	95,61
380	57,23
381	-34,52
382	73,14
383	50,67
384	25,86
385	83,44
386	14,16
387	108,25
388	1,99
389	30,54
390	5,73
391	-33,12
392	-32,65
393	-37,8
394	59,57
395	70,33
396	118,08
397	62,84
398	49,74
399	29,61
400	91,87
401	19,31
402	50,67
403	51,14
404	19,31
405	93,27
406	-6,44
407	66,12
408	-24,69
409	-7,84
410	-50,91
411	37,57
412	24,46
413	12,29
414	106,85
415	52,55
416	52,08
417	22,12
418	-46,69
419	43,18
420	40,84
421	18,84
422	41,78
423	-5,5
424	61,91
425	-40,14
426	44,59
427	50,67
428	44,12
429	-69,63
430	-39,67
431	34,76
432	-30,31
433	-0,82
434	10,42
435	23,52
436	58,63
437	33,35
438	28,2
439	-27,97
440	-31,25
441	-28,91
442	-8,78
443	105,44
444	-33,59
445	-36,4
446	1,52
447	-42,95
448	-43,89
449	70,8
450	56,76
451	53,95
452	24,46
453	17,44
454	13,69
455	17,91
456	36,16
457	20,71
458	6,67
459	-23,29
460	-60,27
461	-62,61
462	60,5
463	37,1
464	78,76
465	33,35
466	72,67
467	107,78
468	74,55
469	-72,44
470	-21,88
471	-22,82
472	4,8
473	25,39
474	-2,69
475	7,14
476	-10,65
477	-8,78
478	8,07
479	63,78
480	35,23
481	1,99
482	94,67
483	82,04
484	113,4
485	141,02
486	12,76
487	40,84
488	82,97
489	25,86
490	109,19
491	42,71
492	87,18
493	75,48
494	47,86
495	38,5
496	148,04
497	119,02
498	45,99
499	106,85
500	104,5
501	65,65
502	125,1
503	45,06
504	126,04
505	7,14
506	74,55
507	119,95
508	75,48
509	94,67
510	87,65
511	35,23
512	117,61
513	122,29
514	48,8
515	78,29
516	104,04
517	65,18
518	51,61
519	82,97
520	73,61
521	32,42
522	87,18
523	6,2
524	22,59
525	41,31
526	55,35
527	105,44
528	75,95
529	10,42
530	7,14
531	37,57
532	21,65
533	65,18
534	17,91
535	4,33
536	40,37
537	-6,9
538	10,42
539	-37,33
540	-14,86
541	33,82
542	62,38
543	45,06
544	37,57
545	-100,53
546	-190,87
547	-216,62
548	-226,45
549	-203,98
550	-63,08
551	-29,37
552	-7,84
553	32,42
554	-8,78
555	-68,69
556	68,93
557	43,18
558	-27,03
559	-35,46
560	1,05
561	20,25
562	-33,59
563	-45,29
564	-22,35
565	-81,8
566	-26,57
567	-37,8
568	-46,23
569	-2,69
570	34,76
571	-7,84
572	-100,53
573	-71,97
574	17,91
575	-75,25
576	-15,33
577	-44,35
578	-18,14
579	-103,8
580	-32,65
581	-60,74
582	-89,29
583	-158,1
584	-95,84
585	-104,74
586	-85,08
587	-65,42
588	-85,55
589	-52,31
590	-49,03
591	-107,55
592	-113,16
593	-116,44
594	-88,82
595	-69,63
596	-116,91
597	-124,87
598	-140,32
599	-107,55
600	-80,87
601	-106,61
602	-100,06
603	-47,63
604	-100,06
605	-138,91
606	-87,89
607	-29,84
608	-136,1
609	-119,72
610	-52,31
611	-43,42
612	-73,84
613	-76,65
614	-113,63
615	-96,78
616	-124,87
617	-144,06
618	-253,6
619	-85,08
620	-119,72
621	-139,85
622	-114,57
623	-97,72
624	-86,48
625	-39,2
626	-139,85
627	-9,25
628	-95,84
629	-44,35
630	-108,95
631	-93,04
632	-95,84
633	-64,01
634	-70,57
635	-89,29
636	-123,93
637	-42,01
638	-90,7
639	-106,61
640	-120,65
641	-158,1
642	-109,89
643	-18,61
644	-76,65
645	-118,78
646	-107,08
647	-56,99
648	-102,4
649	-154,36
650	-85,08
651	-114,57
652	-218,02
653	-169,81
654	-128,61
655	-91,16
656	-40,61
657	-108,95
658	-151,08
659	-112,23
660	-85,08
661	-163,72
662	-139,85
663	-181,98
664	-229,26
665	-254,07
666	-211,94
667	-219,89
668	-199,3
669	-196,02
670	-120,65
671	-169,34
672	-171,68
673	-130,48
674	-135,17
675	-222,7
676	-128,61
677	-111,29
678	12,76
679	-164,19
680	-47,16
681	-47,63
682	61,91
683	-51,37
684	-46,69
685	36,63
686	24,93
687	32,42
688	23,05
689	-37,8
690	29,14
691	-20,95
692	25,86
693	97,02
694	47,4
695	146,17
696	80,63
697	-1,76
698	57,69
699	118,08
700	135,87
701	143,83
702	166,76
703	218,25
704	162,08
705	169,57
706	204,68
707	105,44
708	159,27
709	135,87
710	129,31
711	180,34
712	224,81
713	111,06
714	234,64
715	247,28
716	201,87
717	103,1
718	130,25
719	215,45
720	222,94
721	243,06
722	242,13
723	236,51
724	218,72
725	225,28
726	155,53
727	192,51
728	174,25
729	260,38
730	214,04
731	176,13
732	229,49
733	264,13
734	159,74
735	235,11
736	279,58
737	200
738	233,7
739	224,81
740	217,79
741	210,77
742	218,72
743	268,81
744	306,26
745	288,47
746	151,32
747	259,92
748	205,15
749	194,38
750	206,08
751	157,87
752	229,96
753	244,94
754	183,15
755	325,92
756	188,3
757	288,94
758	163,02
759	171,91
760	221,06
761	255,7
762	177,53
763	286,6
764	205,15
765	258,51
766	245,87
767	258,51
768	182,68
769	355,88
770	356,35
771	525,8
772	664,83
773	597,42
774	706,49
775	583,38
776	499,59
777	365,24
778	271,62
779	291,75
780	353,54
781	232,3
782	270,68
783	262,73
784	288,94
785	280,51
786	498,65
787	607,72
788	821,18
789	751,43
790	548,27
791	412,05
792	299,71
793	235,11
794	204,68
795	248,21
796	301,11
797	300,17
798	341,84
799	192,04
800	259,92
801	235,57
802	243,53
803	212,17
804	257,58
805	132,59
806	163,02
807	261,32
808	251,49
809	201,4
810	287,53
811	194,38
812	248,21
813	216,85
814	265,07
815	254,77
816	211,7
817	257,11
818	260,38
819	173,78
820	199,06
821	255,7
822	193,45
823	239,79
824	290,81
825	269,28
826	292,22
827	276,3
828	246,34
829	316,09
830	261,79
831	214,04
832	297,37
833	225,28
834	240,26
835	266,94
836	251,02
837	231,83
838	193,91
839	283,79
840	267,41
841	249,15
842	235,57
843	190,64
844	199,06
845	244,47
846	337,15
847	330,13
848	303,92
849	320,3
850	337,15
851	305,32
852	236,04
853	248,21
854	244,94
855	208,42
856	243,06
857	260,38
858	303,45
859	288,94
860	235,57
861	303,92
862	333,88
863	211,23
864	287,53
865	246,81
866	183,62
867	274,43
868	356,81
869	371,33
870	420,48
871	659,68
872	906,37
873	1102,04
874	1079,1
875	838,5
876	582,44
877	442,95
878	390,52
879	300,64
880	328,73
881	343,24
882	386,77
883	348,39
884	533,29
885	657,81
886	655,47
887	794,49
888	662,02
889	616,61
890	659,21
891	2428,66
892	12617,01
893	22454,28
894	30755,69
895	32505,01
896	23432,16
897	14599,44
898	8336,64
899	8361,45
900	9674,02
901	11472,02
902	11437,38
903	8072,16
904	5235,9
905	3119,11
906	1944,17
907	1424,1
908	1053,83
909	850,67
910	716,32
911	618,02
912	593,68
913	2185,71
914	8815,04
915	14639,23
916	19771,56
917	20031,83
918	14559,19
919	9072,5
920	5033,67
921	4341,34
922	4851,11
923	5606,64
924	5915,12
925	4609,57
926	3195,88
927	1980,68
928	1178,81
929	746,28
930	586,66
931	530,48
932	369,45
933	642,36
934	2260,14
935	3834,85
936	5207,34
937	5795,28
938	4471,01
939	3099,45
940	1836,97
941	1145,58
942	819,77
943	728,96
944	2794,25
945	8623,12
946	13002,73
947	17137,99
948	15490,25
949	13327,13
950	17186,2
951	19946,16
952	23580,08
953	22993,54
954	16551,45
955	10836,8
956	5990,95
957	3361,13
958	2377,63
959	2016,25
960	3671,95
961	14652,81
962	25396,33
963	33990,78
964	37065,31
965	28521,89
966	23612,85
967	17937,51
968	15209,39
969	13028,94
970	9230,72
971	6202,54
972	3496,88
973	2036,38
974	1287,41
975	949,91
976	655,94
977	638,62
978	1599,64
979	4867,96
980	7529,15
981	9844,41
982	9797,13
983	7311,95
984	5025,25
985	2867,74
986	1658,15
987	1024,34
988	720,53
989	725,21
990	3522,16
991	9361,79
992	13782,6
993	17461,45
994	15693,88
995	12002,38
996	7761,8
997	4360,07
998	2409,93
999	2246,56
1000	4098,4
1001	5609,44
1002	7280,59
1003	7175,26
1004	5621,62
1005	4209,8
1006	5311,26
1007	14424,37
1008	22008,17
1009	28649,21
1010	28630,49
1011	22150,95
1012	15983,64
1013	9274,72
1014	4893,24
1015	2770,84
1016	1677,81
1017	1481,21
1018	6242,79
1019	15644,73
1020	23011,8
1021	29050,38
1022	29180,98
1023	43755,03
1024	55833,6
1025	60812,85
1026	62285,99
1027	54659,58
1028	43413,78
1029	27460,22
1030	14423,9
1031	7380,76
1032	3763,23
1033	2033,57
1034	1218,13
1035	759,39
1036	589
1037	526,74
1038	411,12
1039	356,81
1040	440,14
1041	335,28
1042	319,37
1043	328,73
1044	339,96
1045	378,35
1046	488,35
1047	1620,24
1048	9663,72
1049	19561,85
1050	27439,62
1051	32071,07
1052	26636,82
1053	21151,54
1054	16722,78
1055	13869,2
1056	12623,09
1057	12821,57
1058	10905,61
1059	8407,32
1060	6364,97
1061	3956,09
1062	2261,07
1063	1236,39
1064	818,84
1065	554,82
1066	325,45
1067	278,64
1068	303,45
1069	511,29
1070	2556,45
1071	6232,03
1072	9064,54
1073	11418,65
1074	10546,1
1075	8814,57
1076	6717,92
1077	4273
1078	2288,22
1079	1259,79
1080	677
1081	386,31
1082	230,43
1083	271,15
1084	313,28
1085	304,85
1086	289,88
1087	271,62
1088	466,82
1089	3115,37
1090	9914,63
1091	15339,99
1092	20140,43
1093	19917,14
1094	16308,5
1095	13313,55
1096	8843,13
1097	5018,69
1098	3212,74
1099	5517,23
1100	8522,94
1101	11342,82
1102	12609,52
1103	10592,45
1104	9087,95
1105	6773,63
1106	4180,78
1107	2322,86
1108	1093,15
1109	603,04
1110	433,12
1111	297,37
1112	218,72
1113	110,59
1114	114,8
1115	197,19
1116	137,74
1117	55,82
1118	140,55
1119	74,55
1120	141,02
1121	77,82
1122	82,97
1123	110,12
1124	58,16
1125	101,23
1126	68,46
1127	146,17
1128	66,59
1129	46,46
1130	137,74
1131	81,57
1132	107,78
1133	128,85
1134	46,93
1135	56,29
1136	114,8
1137	33,35
1138	68,93
1139	69,86
1140	112,46
1141	124,63
1142	124,17
1143	83,91
1144	32,42
1145	101,7
1146	150,38
1147	208,89
1148	207,96
1149	198,13
1150	1671,73
1151	6040,57
1152	10165,06
1153	13316,36
1154	14030,22
1155	11809,52
1156	10276,47
1157	8045,47
1158	5117,93
1159	2584,07
1160	1278,99
1161	737,39
1162	332,47
1163	242,6
1164	302,98
1165	130,25
1166	154,59
1167	153,19
1168	138,21
1169	123,7
1170	137,74
1171	97,02
1172	202,34
1173	387,24
1174	809,47
1175	3273,59
1176	12896,94
1177	23436,37
1178	31226,14
1179	34675,62
1180	29280,22
1181	25891,12
1182	21083,66
1183	14865,8
1184	8109,14
1185	3857,79
1186	1954,46
1187	1107,19
1188	668,11
1189	428,44
1190	401,75
1191	266,47
1192	151,78
1193	118,55
1194	103,57
1195	119,95
1196	131,66
1197	119,95
1198	137,27
1199	159,27
1200	139,14
1201	131,19
1202	101,7
1203	112,46
1204	50,2
1205	-3,63
1206	81,57
1207	121,82
1208	46,46
1209	79,23
1210	387,24
1211	1207,37
1212	2073,83
1213	2586,41
1214	2842,46
1215	2432,4
1216	2121,11
1217	1887,99
1218	1335,63
1219	873,6
1220	383,03
1221	264,13
1222	121,82
1223	222
1224	147,1
1225	97,48
1226	178
1227	420,48
1228	2747,44
1229	6592
1230	10082,21
1231	12513,56
1232	11940,59
1233	10168,81
1234	9055,18
1235	7336,76
1236	4807,58
1237	2648,2
1238	1225,15
1239	619,89
1240	288,47
1241	260,38
1242	137,74
1243	87,18
1244	155,06
1245	120,42
1246	112,93
1247	126,04
1248	56,76
1249	64,25
1250	36,63
1251	97,02
1252	117,61
1253	78,76
1254	34,29
1255	50,67
1256	23,05
1257	67,52
1258	31,01
1259	30,08
1260	114,8
1261	67,06
1262	-5,5
1263	104,04
1264	4,33
1265	32,42
1266	3,86
1267	12,29
1268	75,01
1269	27,74
1270	63,31
1271	-15,33
1272	105,91
1273	-21,88
1274	-2,22
1275	127,91
1276	702,75
1277	1540,19
1278	2480,15
1279	2996
1280	3091,96
1281	2563,47
1282	2333,16
1283	1908,12
1284	1422,69
1285	888,58
1286	484,61
1287	288,47
1288	229,96
1289	381,16
1290	455,12
1291	669,51
1292	710,7
1293	641,42
1294	610,53
1295	432,18
1296	444,35
1297	193,91
1298	132,59
1299	115,27
1300	183,62
1301	325,92
1302	557,16
1303	715,85
1304	796,37
1305	809,94
1306	730,36
1307	679,34
1308	464,48
1309	359,62
1310	232,3
1311	94,67
1312	134,46
1313	31,95
1314	32,42
1315	-38,74
1316	84,84
1317	68,46
1318	48,8
1319	-16,27
1320	30,54
1321	32,88
1322	56,76
1323	-29,84
1324	-0,35
1325	16,97
1326	-55,12
1327	-27,5
1328	68,46
1329	-29,37
1330	-24,69
1331	11,82
1332	-4,56
1333	-1,29
1334	16,97
1335	43,65
1336	-19,54
1337	16,5
1338	-30,78
1339	-32,65
1340	39,44
1341	-5,03
1342	-44,82
1343	51,14
1344	-9,71
1345	76,89
1346	-120,65
1347	-55,12
1348	-53,72
1349	-36,86
1350	-20,01
1351	-24,22
1352	-49,97
1353	-19,54
1354	-21,42
1355	3,39
1356	15,1
1357	9,48
1358	-86,01
1359	-25,16
1360	-55,12
1361	-31,25
1362	45,06
1363	-2,69
1364	-47,16
1365	-19,54
1366	-52,78
1367	36,16
1368	-4,56
1369	-4,56
1370	-65,42
1371	-49,5
1372	17,91
1373	17,91
1374	-20,01
1375	-45,76
1376	-49,03
1377	-54,65
1378	-13,46
1379	-31,25
1380	-42,01
1381	-30,31
1382	-32,18
1383	-29,84
1384	-30,31
1385	-30,31
1386	-42,48
1387	10,88
1388	-25,16
1389	12,76
1390	-7,84
1391	46,93
1392	-53,25
1393	-42,48
1394	9,95
1395	-1,29
1396	-25,16
1397	-61,21
1398	-35,46
1399	-28,44
1400	39,44
1401	5,27
1402	-8,31
1403	-38,74
1404	39,91
1405	88,59
1406	30,54
1407	30,54
1408	4,8
1409	49,27
1410	23,52
1411	-9,71
1412	-23,76
1413	19,31
1414	-21,42
1415	-5,97
1416	-10,18
1417	-3,63
1418	38,5
1419	-78,99
1420	-32,65
1421	36,63
1422	-11,12
1423	-0,82
1424	19,78
1425	15,1
1426	20,25
1427	27,27
1428	60,5
1429	-2,22
1430	53,48
1431	56,76
1432	46,93
1433	-83,21
1434	-109,89
1435	82,5
1436	32,88
1437	-17,2
1438	-20,48
1439	50,2
1440	16,03
1441	94,67
1442	178,47
1443	51,14
1444	12,29
1445	31,48
1446	23,05
1447	47,4
1448	37,57
1449	2,46
1450	14,16
1451	77,35
1452	-19,08
1453	-57,46
1454	56,29
1455	76,42
1456	142,89
1457	74,55
1458	83,91
1459	108,25
1460	27,74
1461	119,95
1462	3,86
1463	13,69
1464	-20,95
1465	-30,78
1466	-16,27
1467	-15,33
1468	-79,93
1469	11,35
1470	-5,5
1471	96,08
1472	-67,29
1473	-12,05
1474	-14,39
1475	-35,46
1476	33,82
1477	11,82
1478	4,33
1479	-8,31
1480	-32,18
1481	-7,84
1482	21,18
1483	13,22
1484	-44,82
1485	-39,67
1486	54,42
1487	8,07
1488	60,5
1489	94,21
1490	-30,78
1491	16,03
1492	55,35
1493	50,2
1494	20,25
1495	93,27
1496	100,76
1497	201,87
1498	253,36
1499	219,66
1500	71,27
1501	152,25
1502	42,71
1503	110,12
1504	151,78
1505	10,42
1506	25,39
1507	2,46
1508	-31,25
1509	-11,12
1510	-11,59
1511	10,42
1512	120,89
1513	48,8
1514	129,31
1515	379,28
1516	615,21
1517	675,13
1518	728,02
1519	694,32
1520	481,8
1521	425,63
1522	345,58
1523	324,52
1524	364,77
1525	261,32
1526	178
1527	194,85
1528	148,98
1529	109,65
1530	236,04
1531	61,44
1532	60,5
1533	64,72
1534	75,48
1535	31,01
1536	19,31
1537	23,99
1538	70,8
1539	5,27
1540	-35,46
1541	-22,35
1542	-18,61
1543	38,97
1544	28,2
1545	169,1
1546	274,9
1547	278,64
1548	380,22
1549	352,13
1550	230,89
1551	254,3
1552	178,47
1553	253,83
1554	183,62
1555	129,78
1556	68,93
1557	74,08
1558	38,5
1559	35,23
1560	67,52
1561	-28,44
1562	-27,97
1563	56,29
1564	61,91
1565	34,76
1566	0,59
1567	117,14
1568	17,44
1569	-27,03
1570	71,27
1571	63,78
1572	35,23
1573	26,33
1574	89,99
1575	60,97
1576	120,89
1577	120,42
1578	95,61
1579	96,08
1580	6,67
1581	142,89
1582	112,93
1583	-41,08
1584	60,97
1585	64,25
1586	164,89
1587	152,25
1588	177,06
1589	159,74
1590	266
1591	211,7
1592	229,02
1593	167,7
1594	147,1
1595	196,25
1596	182,21
1597	170,51
1598	124,17
1599	59,1
1600	88,59
1601	49,74
1602	22,59
1603	131,19
1604	47,4
1605	60,5
1606	49,74
1607	-50,91
1608	33,35
1609	39,44
1610	-50,44
1611	46,93
1612	25,39
1613	26,8
1614	31,48
1615	32,42
1616	21,18
1617	17,44
1618	20,71
1619	104,5
1620	96,08
1621	141,49
1622	192,98
1623	179,87
1624	228,09
1625	220,13
1626	192,98
1627	176,13
1628	191,57
1629	180,34
1630	177,53
1631	96,08
1632	77,82
1633	55,35
1634	52,08
1635	18,84
1636	32,88
1637	16,97
1638	35,23
1639	134,46
1640	23,52
1641	46,46
1642	80,16
1643	29,61
1644	53,48
1645	56,29
1646	86,25
1647	121,36
1648	60,5
1649	28,2
1650	162,08
1651	28,2
1652	84,38
1653	2,46
1654	12,29
1655	46,93
1656	-29,37
1657	-23,76
1658	-0,35
1659	16,03
1660	46,93
1661	-54,18
1662	-10,65
1663	38,03
1664	-0,35
1665	20,71
1666	37,57
1667	-20,48
1668	-29,84
1669	11,35
1670	58,16
1671	-14,39
1672	33,82
1673	-33,59
1674	-5,97
1675	29,14
1676	37,1
1677	22,12
1678	11,82
1679	-32,65
1680	49,74
1681	20,71
1682	27,27
1683	-15,8
1684	29,14
1685	53,48
1686	54,42
1687	16,97
1688	15,1
1689	12,29
1690	-47,16
1691	-10,65
1692	7,14
1693	-27,97
1694	27,74
1695	12,76
1696	7,14
1697	37,1
1698	55,35
1699	27,74
1700	-7,37
1701	-10,18
1702	-6,44
1703	-4,56
1704	5,27
1705	88,59
1706	-13,46
1707	23,99
1708	-10,65
1709	-15,33
1710	23,05
1711	28,67
1712	17,91
1713	-41,08
1714	5,73
1715	9,48
1716	-9,71
1717	-12,52
1718	16,97
1719	23,05
1720	-14,86
1721	47,4
1722	-11,12
1723	-1,29
1724	-5,5
1725	-29,37
1726	34,76
1727	12,29
1728	34,76
1729	-68,69
1730	75,48
1731	-27,5
1732	-39,67
1733	-42,48
1734	35,69
1735	45,99
1736	89,06
1737	45,52
1738	37,57
1739	30,08
1740	64,25
1741	83,91
1742	22,59
1743	21,65
1744	56,29
1745	5,73
1746	1,05
1747	13,22
1748	-5,5
1749	-13,46
1750	28,2
1751	-14,86
1752	42,25
1753	37,57
1754	-3,16
1755	39,91
1756	82,5
1757	35,69
1758	40,37
1759	58,16
1760	-64,95
1761	-7,84
1762	-5,97
1763	81,57
1764	-45,29
1765	-4,56
1766	30,08
1767	-49,97
1768	41,78
1769	25,86
1770	3,39
1771	73,14
1772	86,72
1773	40,84
1774	7,61
1775	33,35
1776	-26,1
1777	32,88
1778	-8,78
1779	34,76
1780	11,35
1781	20,25
1782	-17,67
1783	-50,44
1784	34,76
1785	43,18
1786	45,52
1787	-47,63
1788	-86,48
1789	-34,05
1790	-1,76
1791	-34,52
1792	16,5
1793	-20,48
1794	82,04
1795	7,14
1796	7,14
1797	37,1
1798	-29,84
1799	-62,14
1800	-52,78
1801	-21,88
1802	53,01
1803	34,29
1804	-2,22
1805	-10,65
1806	-40,14
1807	-7,84
1808	-8,31
1809	-41,54
1810	22,59
1811	-1,29
1812	18,37
1813	24,46
1814	22,12
1815	23,05
1816	28,2
1817	-55,59
1818	7,61
1819	2,46
1820	1,05
1821	39,91
1822	-45,29
1823	-43,89
1824	42,71
1825	49,27
1826	-47,16
1827	48,33
1828	12,29
1829	-10,65
1830	-24,22
1831	15,1
1832	74,08
1833	24,46
1834	6,2
1835	56,76
1836	-21,88
1837	31,48
1838	-64,95
1839	87,65
1840	22,59
1841	78,76
1842	-24,22
1843	-3,63
1844	-19,08
1845	-33,12
1846	34,29
1847	-15,33
1848	3,86
1849	1,52
1850	-29,84
1851	31,48
1852	-28,91
1853	68,93
1854	-9,25
1855	29,61
1856	9,48
1857	72,21
1858	18,84
1859	38,03
1860	-35,93
1861	30,54
1862	27,27
1863	9,48
1864	-4,56
1865	26,8
1866	60,03
1867	-20,48
1868	-20,48
1869	-55,59
1870	9,48
1871	22,12
1872	43,18
1873	0,12
1874	3,86
1875	-42,95
1876	-1,76
1877	-3,63
1878	-35,46
1879	-5,97
1880	83,44
1881	63,78
1882	60,03
1883	-4,56
1884	14,16
1885	21,65
1886	-8,31
1887	-19,54
1888	51,14
1889	18,37
1890	-2,69
1891	84,38
1892	-26,57
1893	69,4
1894	47,86
1895	40,84
1896	18,84
1897	47,4
1898	9,95
1899	40,84
1900	-78,99
1901	-31,71
1902	19,31
1903	-50,91
1904	25,39
1905	45,52
1906	27,74
1907	-15,33
1908	-1,29
1909	-68,69
1910	-33,59
1911	13,22
1912	-0,35
1913	55,35
1914	19,31
1915	68,93
1916	-35,93
1917	38,97
1918	70,8
1919	-26,1
1920	37,1
1921	-72,91
1922	-4,1
1923	-15,8
1924	2,46
1925	-28,44
1926	-49,03
1927	-43,42
1928	-18,14
1929	-26,1
1930	-23,76
1931	-41,54
1932	37,57
1933	-5,5
1934	29,61
1935	-20,95
1936	48,8
1937	-20,95
1938	38,5
1939	-31,25
1940	-68,69
1941	56,29
1942	58,63
1943	68,46
1944	-46,69
1945	25,39
1946	-48,57
1947	53,95
1948	16,97
1949	20,25
1950	4,33
1951	105,91
1952	66,12
1953	19,31
1954	12,76
1955	-20,48
1956	-3,16
1957	-6,44
1958	1,52
1959	25,86
1960	24,46
1961	-2,69
1962	32,42
1963	14,63
1964	55,82
1965	25,39
1966	-29,37
1967	-53,25
1968	75,48
1969	-12,99
1970	16,5
1971	-2,69
1972	-5,03
1973	28,67
1974	11,82
1975	1,52
1976	10,42
1977	21,65
1978	30,54
1979	-16,73
1980	-16,73
1981	-27,5
1982	-21,88
1983	6,67
1984	34,29
1985	31,95
1986	-28,91
1987	40,37
1988	21,18
1989	-49,5
1990	-2,69
1991	-30,78
1992	2,93
1993	35,69
1994	-26,1
1995	55,82
1996	-10,18
1997	42,71
1998	-44,82
1999	-9,25
2000	-14,39
2001	-50,91
2002	18,37
2003	-15,33
2004	9,48
2005	-16,27
2006	-33,12
2007	-5,5
2008	-10,65
2009	32,88
2010	-18,61
2011	46,46
2012	-55,59
2013	70,33
2014	-25,63
2015	46,46
2016	-29,37
2017	5,73
2018	64,25
2019	63,78
2020	-15,8
2021	16,5
2022	-29,37
2023	29,14
2024	48,8
2025	21,18
2026	32,88
2027	-49,03
2028	38,03
2029	11,82
2030	-17,2
2031	4,8
2032	10,88
2033	36,16
2034	-17,67
2035	19,31
2036	6,2
2037	11,82
2038	-20,48
2039	37,57
2040	-77,12
2041	5,73
2042	-11,59
2043	25,86
2044	2,93
2045	7,14
2046	7,14
2047	7,14
