Data from FLMS055071__2__14-15-10-440.txt Node

Date: Wed Apr 28 14:15:10 CEST 2021
User: thoma
Spectrometer: FLMS05507
Trigger mode: 0
Integration Time (sec): 1,000000E-3
Scans to average: 6
Electric dark correction enabled: true
Nonlinearity correction enabled: false
Boxcar width: 0
XAxis mode: Wavelengths
Number of Pixels in Spectrum: 2048
>>>>>Begin Spectral Data<<<<<
188,96	-332,09
189,424	-332,09
189,887	-332,09
190,351	-311,02
190,815	-296,59
191,279	-251,34
191,742	-241,59
192,206	-154,21
192,669	-257,97
193,133	-220,52
193,596	-134,7
194,06	-68,78
194,523	-53,17
194,987	6,12
195,45	53,32
195,913	91,94
196,376	154,35
196,84	251,49
197,303	256,17
197,766	250,71
198,229	318,19
198,692	386,46
199,155	446,14
199,618	1038,3
200,081	2714,51
200,543	2648,19
201,006	2600,6
201,469	2591,63
201,932	2660,68
202,394	2674,33
202,857	2664,19
203,32	2699,69
203,782	2707,49
204,245	2764,05
204,707	2732,84
205,169	2787,46
205,632	2829,59
206,094	2879,91
206,556	2790,19
207,019	2852,6
207,481	2856,89
207,943	2950,51
208,405	2890,44
208,867	2918,92
209,329	2995,76
209,791	3052,33
210,253	3074,95
210,715	3144,78
211,177	3113,57
211,639	3080,02
212,1	3119,42
212,562	3143,22
213,024	3191,2
213,485	3266,1
213,947	3339,82
214,408	3353,48
214,87	3316,42
215,331	3443,59
215,793	3394,83
216,254	3515,36
216,715	3433,44
217,177	3421,74
217,638	3399,9
218,099	3511,46
218,56	3587,14
219,021	3570,76
219,482	3629,66
219,944	3625,37
220,404	3607,81
220,865	3721,72
221,326	3781,4
221,787	3788,43
222,248	3760,34
222,709	3841,09
223,169	3898,43
223,63	3875,42
224,091	3825,48
224,551	3949,53
225,012	3897,65
225,472	3994
225,933	4019,75
226,393	4103,23
226,854	4103,23
227,314	4161,35
227,774	4158,62
228,234	4155,5
228,695	4228,06
229,155	4261,6
229,615	4371,22
230,075	4395,79
230,535	4275,26
230,995	4426,22
231,455	4430,9
231,915	4474,2
232,375	4462,5
232,834	4489,03
233,294	4609,56
233,754	4633,36
234,214	4634,53
234,673	4679,39
235,133	4718,4
235,592	4760,92
236,052	4831,13
236,511	4824,5
236,971	4914,61
237,43	4934,51
237,889	5026,96
238,349	5084,69
238,808	4989,12
239,267	5100,3
239,726	5026,57
240,185	5115,12
240,644	5103,81
241,103	5194,31
241,562	5250,09
242,021	5273,5
242,48	5320,7
242,939	5320,7
243,398	5298,07
243,857	5453,72
244,315	5517,3
244,774	5586,74
245,233	5619,11
245,691	5527,83
246,15	5585,96
246,608	5611,31
247,067	5671,39
247,525	5742,77
247,983	5784,12
248,442	5775,15
248,9	5750,18
249,358	5878,91
249,816	5960,44
250,274	5894,13
250,733	5902,71
251,191	5967,07
251,649	6052,11
252,107	6144,56
252,564	6151,98
253,022	6185,13
253,48	6179,67
253,938	6203,08
254,396	6308,01
254,853	6337,66
255,311	6376,67
255,769	6437,91
256,226	6375,11
256,684	6489,79
257,141	6489,01
257,599	6581,07
258,056	6622,81
258,513	6643,49
258,971	6695,37
259,428	6751,54
259,885	6822,54
260,342	6897,44
260,799	6816,3
261,256	6936,45
261,714	6987,16
262,171	6982,09
262,627	7109,26
263,084	7066,74
263,541	7116,28
263,998	7155,68
264,455	7199,37
264,912	7327,32
265,368	7378,03
265,825	7339,8
266,281	7447,85
266,738	7489,98
267,194	7562,15
267,651	7581,26
268,107	7626,12
268,564	7567,22
269,02	7712,72
269,476	7778,65
269,933	7619,88
270,389	7790,35
270,845	7725,6
271,301	7792,69
271,757	7790,35
272,213	7975,64
272,669	8000,61
273,125	8020,5
273,581	8087,6
274,037	8126,22
274,492	8254,56
274,948	8148,06
275,404	8192,92
275,86	8363
276,315	8392,26
276,771	8354,81
277,226	8479,25
277,682	8490,95
278,137	8562,34
278,593	8552,98
279,048	8666,88
279,503	8627,09
279,958	8730,08
280,414	8731,64
280,869	8888,06
281,324	8848,66
281,779	8925,51
282,234	8907,18
282,689	8977,39
283,144	9026,15
283,599	9051,51
284,054	9038,64
284,508	9227,44
284,963	9165,42
285,418	9347,2
285,873	9298,44
286,327	9370,99
286,782	9469,69
287,236	9630,01
287,691	9506,35
288,145	9551,99
288,6	9628,06
289,054	9766,93
289,508	9601,15
289,963	9827,4
290,417	9815,69
290,871	9874,6
291,325	9917,12
291,779	9949,5
292,233	10072,76
292,687	10139,47
293,141	10157,41
293,595	10183,94
294,049	10337,24
294,503	10302,53
294,957	10523,32
295,41	10329,44
295,864	10496,79
296,318	10479,24
296,771	10520,2
297,225	10556,08
297,678	10737,48
298,132	10731,23
298,585	10797,55
299,039	10793,26
299,492	10851,77
299,945	10879,47
300,398	10961,39
300,852	11143,17
301,305	11117,03
301,758	11243,03
302,211	11408,82
302,664	11549,25
303,117	11512,19
303,57	11581,63
304,023	11882
304,476	11912,03
304,928	12155,45
305,381	12366,1
305,834	12555,68
306,286	12833,82
306,739	13067,09
307,192	13434,94
307,644	13896,03
308,097	14216,29
308,549	14522,12
309,001	14854,48
309,454	15001,15
309,906	15367,45
310,358	15782,11
310,81	16697,26
311,263	17528,15
311,715	18411,7
312,167	18726,5
312,619	19402,53
313,071	20152,28
313,523	20765,11
313,975	21239,46
314,426	21844,1
314,878	22421,43
315,33	22783,43
315,782	22971,07
316,233	22909,82
316,685	23651,77
317,136	24937,12
317,588	25950,96
318,039	26662,87
318,491	27494,15
318,942	28169,01
319,393	29224,98
319,845	30188,89
320,296	31074
320,747	32625,78
321,198	33638,06
321,649	34830,17
322,101	34777,51
322,552	35210,9
323,003	34557,5
323,453	34710,41
323,904	35629,07
324,355	37770,66
324,806	39252,61
325,257	40719,35
325,707	42599,19
326,158	43990,64
326,609	45934,06
327,059	46629,98
327,51	46824,25
327,96	46303,48
328,411	46576,54
328,861	46623,74
329,311	47637,97
329,762	48979,1
330,212	49765,91
330,662	49903,61
331,112	49105,49
331,562	48874,94
332,012	49261,52
332,462	49303,65
332,912	49444,48
333,362	49423,8
333,812	49425,36
334,262	49824,42
334,712	50147,03
335,161	50798,87
335,611	51041,11
336,061	50580,03
336,51	49962,12
336,96	49160,49
337,409	49220,17
337,859	49739,38
338,308	50578,07
338,758	51420,28
339,207	52393,16
339,656	52922,12
340,105	53754,18
340,555	54121,65
341,004	53822,06
341,453	53848,97
341,902	53940,25
342,351	54188,35
342,8	54880,37
343,249	54775,44
343,698	54480,92
344,146	53709,32
344,595	53198,69
345,044	53328,98
345,493	54058,06
345,941	54525,78
346,39	54552,69
346,838	54808,59
347,287	55028,6
347,735	54971,26
348,184	54985,3
348,632	55125,35
349,08	55174,11
349,529	55324,68
349,977	55674,59
350,425	56072,87
350,873	56349,06
351,321	56465,3
351,769	56429,8
352,217	56353,74
352,665	56335,4
353,113	56482,86
353,561	56672,44
354,009	56808,58
354,456	56820,67
354,904	56820,67
355,352	56820,67
355,799	56820,67
356,247	56820,67
356,694	56764,11
357,142	56526,94
357,589	56387,67
358,037	56154,4
358,484	55792,79
358,931	55955,46
359,379	56579,21
359,826	56820,67
360,273	56820,67
360,72	56820,67
361,167	56820,67
361,614	56820,67
362,061	56820,67
362,508	56820,67
362,955	56820,67
363,402	56820,67
363,848	56820,67
364,295	56820,67
364,742	56820,67
365,188	56820,67
365,635	56820,67
366,082	56820,67
366,528	56820,67
366,975	56820,67
367,421	56820,67
367,867	56820,67
368,314	56820,67
368,76	56820,67
369,206	56820,67
369,652	56820,67
370,098	56820,67
370,545	56820,67
370,991	56820,67
371,437	56820,67
371,882	56820,67
372,328	56820,67
372,774	56820,67
373,22	56820,67
373,666	56820,67
374,111	56820,67
374,557	56820,67
375,003	56820,67
375,448	56820,67
375,894	56820,67
376,339	56820,67
376,785	56820,67
377,23	56820,67
377,675	56820,67
378,121	56820,67
378,566	56820,67
379,011	56820,67
379,456	56820,67
379,901	56820,67
380,346	56820,67
380,791	56820,67
381,236	56820,67
381,681	56820,67
382,126	56820,67
382,571	56820,67
383,016	56820,67
383,461	56820,67
383,905	56820,67
384,35	56820,67
384,794	56820,67
385,239	56820,67
385,683	56820,67
386,128	56820,67
386,572	56820,67
387,017	56820,67
387,461	56820,67
387,905	56820,67
388,349	56820,67
388,794	56820,67
389,238	56820,67
389,682	56820,67
390,126	56820,67
390,57	56820,67
391,014	56820,67
391,457	56820,67
391,901	56820,67
392,345	56820,67
392,789	56820,67
393,233	56820,67
393,676	56820,67
394,12	56820,67
394,563	56820,67
395,007	56820,67
395,45	56820,67
395,894	56820,67
396,337	56820,67
396,78	56820,67
397,224	56820,67
397,667	56820,67
398,11	56820,67
398,553	56820,67
398,996	56820,67
399,439	56820,67
399,882	56820,67
400,325	56820,67
400,768	56820,67
401,211	56820,67
401,654	56820,67
402,096	56820,67
402,539	56820,67
402,982	56820,67
403,424	56820,67
403,867	56820,67
404,309	56820,67
404,752	56820,67
405,194	56820,67
405,637	56820,67
406,079	56820,67
406,521	56820,67
406,963	56820,67
407,406	56820,67
407,848	56820,67
408,29	56820,67
408,732	56820,67
409,174	56820,67
409,616	56820,67
410,058	56820,67
410,499	56820,67
410,941	56820,67
411,383	56820,67
411,825	56820,67
412,266	56820,67
412,708	56820,67
413,15	56820,67
413,591	56820,67
414,033	56820,67
414,474	56820,67
414,915	56820,67
415,357	56820,67
415,798	56820,67
416,239	56820,67
416,68	56820,67
417,121	56820,67
417,563	56820,67
418,004	56820,67
418,445	56820,67
418,885	56820,67
419,326	56820,67
419,767	56820,67
420,208	56820,67
420,649	56820,67
421,089	56820,67
421,53	56820,67
421,971	56820,67
422,411	56820,67
422,852	56820,67
423,292	56820,67
423,733	56820,67
424,173	56820,67
424,613	56820,67
425,054	56820,67
425,494	56820,67
425,934	56820,67
426,374	56820,67
426,814	56820,67
427,254	56820,67
427,694	56820,67
428,134	56820,67
428,574	56820,67
429,014	56820,67
429,454	56820,67
429,893	56820,67
430,333	56820,67
430,773	56820,67
431,212	56820,67
431,652	56820,67
432,091	56820,67
432,531	56820,67
432,97	56820,67
433,41	56820,67
433,849	56820,67
434,288	56820,67
434,727	56820,67
435,167	56820,67
435,606	56820,67
436,045	56820,67
436,484	56820,67
436,923	56820,67
437,362	56820,67
437,801	56820,67
438,239	56820,67
438,678	56820,67
439,117	56820,67
439,556	56820,67
439,994	56820,67
440,433	56820,67
440,871	56820,67
441,31	56820,67
441,748	56820,67
442,187	56820,67
442,625	56820,67
443,063	56820,67
443,502	56820,67
443,94	56820,67
444,378	56820,67
444,816	56820,67
445,254	56820,67
445,692	56820,67
446,13	56820,67
446,568	56820,67
447,006	56820,67
447,444	56820,67
447,881	56820,67
448,319	56820,67
448,757	56820,67
449,194	56820,67
449,632	56820,67
450,07	56820,67
450,507	56820,67
450,944	56820,67
451,382	56820,67
451,819	56820,67
452,256	56820,67
452,694	56820,67
453,131	56820,67
453,568	56820,67
454,005	56820,67
454,442	56820,67
454,879	56820,67
455,316	56820,67
455,753	56820,67
456,19	56820,67
456,627	56820,67
457,063	56820,67
457,5	56820,67
457,937	56820,67
458,373	56820,67
458,81	56820,67
459,246	56820,67
459,683	56820,67
460,119	56820,67
460,556	56820,67
460,992	56820,67
461,428	56820,67
461,864	56820,67
462,301	56820,67
462,737	56820,67
463,173	56820,67
463,609	56820,67
464,045	56820,67
464,481	56820,67
464,917	56820,67
465,352	56820,67
465,788	56820,67
466,224	56820,67
466,66	56820,67
467,095	56820,67
467,531	56820,67
467,966	56820,67
468,402	56820,67
468,837	56820,67
469,273	56820,67
469,708	56820,67
470,143	56820,67
470,578	56820,67
471,014	56820,67
471,449	56820,67
471,884	56820,67
472,319	56820,67
472,754	56820,67
473,189	56820,67
473,624	56820,67
474,059	56820,67
474,493	56820,67
474,928	56820,67
475,363	56820,67
475,797	56820,67
476,232	56820,67
476,667	56820,67
477,101	56820,67
477,536	56820,67
477,97	56820,67
478,404	56820,67
478,839	56820,67
479,273	56820,67
479,707	56820,67
480,141	56820,67
480,575	56820,67
481,009	56820,67
481,444	56820,67
481,877	56820,67
482,311	56820,67
482,745	56820,67
483,179	56820,67
483,613	56820,67
484,047	56820,67
484,48	56820,67
484,914	56820,67
485,347	56820,67
485,781	56820,67
486,214	56820,67
486,648	56820,67
487,081	56820,67
487,515	56820,67
487,948	56820,67
488,381	56820,67
488,814	56820,67
489,247	56820,67
489,68	56820,67
490,113	56820,67
490,546	56820,67
490,979	56820,67
491,412	56820,67
491,845	56820,67
492,278	56820,67
492,711	56820,67
493,143	56820,67
493,576	56820,67
494,009	56820,67
494,441	56820,67
494,874	56820,67
495,306	56820,67
495,738	56820,67
496,171	56820,67
496,603	56820,67
497,035	56820,67
497,467	56820,67
497,9	56820,67
498,332	56820,67
498,764	56820,67
499,196	56820,67
499,628	56820,67
500,06	56820,67
500,491	56820,67
500,923	56820,67
501,355	56820,67
501,787	56820,67
502,218	56820,67
502,65	56820,67
503,081	56820,67
503,513	56820,67
503,944	56820,67
504,376	56820,67
504,807	56820,67
505,238	56820,67
505,67	56820,67
506,101	56820,67
506,532	56820,67
506,963	56820,67
507,394	56820,67
507,825	56820,67
508,256	56820,67
508,687	56820,67
509,118	56820,67
509,549	56820,67
509,979	56820,67
510,41	56820,67
510,841	56820,67
511,271	56820,67
511,702	56820,67
512,132	56820,67
512,563	56820,67
512,993	56820,67
513,424	56820,67
513,854	56820,67
514,284	56820,67
514,714	56820,67
515,145	56820,67
515,575	56820,67
516,005	56820,67
516,435	56820,67
516,865	56820,67
517,295	56820,67
517,724	56820,67
518,154	56820,67
518,584	56820,67
519,014	56820,67
519,443	56820,67
519,873	56820,67
520,303	56820,67
520,732	56820,67
521,161	56820,67
521,591	56820,67
522,02	56820,67
522,45	56820,67
522,879	56820,67
523,308	56820,67
523,737	56820,67
524,166	56820,67
524,595	56820,67
525,024	56820,67
525,453	56820,67
525,882	56820,67
526,311	56820,67
526,74	56820,67
527,169	56820,67
527,597	56820,67
528,026	56820,67
528,455	56820,67
528,883	56820,67
529,312	56820,67
529,74	56820,67
530,168	56820,67
530,597	56820,67
531,025	56820,67
531,453	56820,67
531,882	56820,67
532,31	56820,67
532,738	56820,67
533,166	56820,67
533,594	56820,67
534,022	56820,67
534,45	56820,67
534,878	56820,67
535,305	56820,67
535,733	56820,67
536,161	56820,67
536,588	56820,67
537,016	56820,67
537,444	56820,67
537,871	56820,67
538,299	56820,67
538,726	56820,67
539,153	56820,67
539,581	56820,67
540,008	56820,67
540,435	56820,67
540,862	56820,67
541,289	56820,67
541,716	56820,67
542,143	56820,67
542,57	56820,67
542,997	56820,67
543,424	56820,67
543,851	56820,67
544,277	56820,67
544,704	56820,67
545,131	56820,67
545,557	56820,67
545,984	56820,67
546,41	56820,67
546,837	56820,67
547,263	56820,67
547,69	56820,67
548,116	56820,67
548,542	56820,67
548,968	56820,67
549,394	56820,67
549,82	56820,67
550,246	56820,67
550,672	56820,67
551,098	56820,67
551,524	56820,67
551,95	56820,67
552,376	56820,67
552,802	56820,67
553,227	56820,67
553,653	56820,67
554,078	56820,67
554,504	56820,67
554,929	56820,67
555,355	56820,67
555,78	56820,67
556,206	56820,67
556,631	56820,67
557,056	56820,67
557,481	56820,67
557,906	56820,67
558,331	56820,67
558,756	56820,67
559,181	56820,67
559,606	56820,67
560,031	56820,67
560,456	56820,67
560,881	56820,67
561,305	56820,67
561,73	56820,67
562,155	56820,67
562,579	56820,67
563,004	56820,67
563,428	56820,67
563,853	56820,67
564,277	56820,67
564,701	56820,67
565,126	56820,67
565,55	56820,67
565,974	56820,67
566,398	56820,67
566,822	56820,67
567,246	56820,67
567,67	56820,67
568,094	56820,67
568,518	56820,67
568,941	56820,67
569,365	56820,67
569,789	56820,67
570,213	56820,67
570,636	56820,67
571,06	56820,67
571,483	56820,67
571,907	56820,67
572,33	56820,67
572,753	56820,67
573,177	56820,67
573,6	56820,67
574,023	56820,67
574,446	56820,67
574,869	56820,67
575,292	56820,67
575,715	56820,67
576,138	56820,67
576,561	56820,67
576,984	56820,67
577,407	56820,67
577,829	56820,67
578,252	56820,67
578,675	56820,67
579,097	56820,67
579,52	56820,67
579,942	56820,67
580,364	56820,67
580,787	56820,67
581,209	56820,67
581,631	56820,67
582,054	56820,67
582,476	56820,67
582,898	56820,67
583,32	56820,67
583,742	56820,67
584,164	56820,67
584,586	56820,67
585,008	56820,67
585,429	56820,67
585,851	56820,67
586,273	56820,67
586,694	56820,67
587,116	56820,67
587,538	56820,67
587,959	56820,67
588,38	56820,67
588,802	56820,67
589,223	56820,67
589,644	56820,67
590,066	56820,67
590,487	56820,67
590,908	56820,67
591,329	56820,67
591,75	56820,67
592,171	56820,67
592,592	56820,67
593,013	56820,67
593,434	56820,67
593,854	56820,67
594,275	56820,67
594,696	56820,67
595,116	56820,67
595,537	56820,67
595,957	56820,67
596,378	56820,67
596,798	56820,67
597,218	56820,67
597,639	56820,67
598,059	56820,67
598,479	56820,67
598,899	56820,67
599,319	56820,67
599,739	56820,67
600,159	56820,67
600,579	56820,67
600,999	56820,67
601,419	56820,67
601,839	56820,67
602,259	56820,67
602,678	56820,67
603,098	56820,67
603,517	56820,67
603,937	56820,67
604,356	56820,67
604,776	56820,67
605,195	56820,67
605,614	56820,67
606,034	56820,67
606,453	56820,67
606,872	56820,67
607,291	56820,67
607,71	56820,67
608,129	56820,67
608,548	56820,67
608,967	56820,67
609,386	56820,67
609,805	56820,67
610,223	56820,67
610,642	56820,67
611,061	56820,67
611,479	56820,67
611,898	56820,67
612,316	56820,67
612,735	56820,67
613,153	56820,67
613,571	56820,67
613,99	56820,67
614,408	56820,67
614,826	56820,67
615,244	56820,67
615,662	56820,67
616,08	56820,67
616,498	56820,67
616,916	56820,67
617,334	56820,67
617,752	56820,67
618,169	56820,67
618,587	56820,67
619,005	56820,67
619,422	56820,67
619,84	56820,67
620,257	56820,67
620,675	56820,67
621,092	56820,67
621,509	56820,67
621,927	56820,67
622,344	56820,67
622,761	56820,67
623,178	56820,67
623,595	56820,67
624,012	56820,67
624,429	56820,67
624,846	56820,67
625,263	56820,67
625,68	56820,67
626,097	56820,67
626,513	56820,67
626,93	56820,67
627,346	56820,67
627,763	56820,67
628,179	56820,67
628,596	56820,67
629,012	56820,67
629,429	56820,67
629,845	56820,67
630,261	56820,67
630,677	56820,67
631,093	56820,67
631,509	56820,67
631,925	56820,67
632,341	56820,67
632,757	56820,67
633,173	56820,67
633,589	56820,67
634,005	56820,67
634,42	56820,67
634,836	56820,67
635,252	56820,67
635,667	56820,67
636,083	56820,67
636,498	56820,67
636,913	56820,67
637,329	56820,67
637,744	56820,67
638,159	56820,67
638,574	56820,67
638,99	56820,67
639,405	56820,67
639,82	56820,67
640,235	56820,67
640,65	56820,67
641,064	56820,67
641,479	56820,67
641,894	56820,67
642,309	56820,67
642,723	56820,67
643,138	56820,67
643,552	56820,67
643,967	56820,67
644,381	56820,67
644,796	56820,67
645,21	56820,67
645,624	56820,67
646,038	56820,67
646,453	56820,67
646,867	56820,67
647,281	56820,67
647,695	56820,67
648,109	56820,67
648,523	56820,67
648,936	56820,67
649,35	56820,67
649,764	56820,67
650,178	56820,67
650,591	56820,67
651,005	56820,67
651,418	56820,67
651,832	56820,67
652,245	56820,67
652,659	56820,67
653,072	56820,67
653,485	56820,67
653,898	56820,67
654,312	56820,67
654,725	56820,67
655,138	56820,67
655,551	56820,67
655,964	56820,67
656,377	56820,67
656,789	56820,67
657,202	56820,67
657,615	56820,67
658,028	56820,67
658,44	56820,67
658,853	56820,67
659,265	56820,67
659,678	56820,67
660,09	56820,67
660,503	56820,67
660,915	56820,67
661,327	56820,67
661,739	56820,67
662,152	56820,67
662,564	56820,67
662,976	56820,67
663,388	56820,67
663,8	56820,67
664,211	56820,67
664,623	56820,67
665,035	56820,67
665,447	56820,67
665,858	56820,67
666,27	56820,67
666,682	56820,67
667,093	56820,67
667,505	56820,67
667,916	56820,67
668,327	56820,67
668,739	56820,67
669,15	56820,67
669,561	56820,67
669,972	56820,67
670,383	56820,67
670,794	56820,67
671,205	56820,67
671,616	56820,67
672,027	56820,67
672,438	56820,67
672,849	56820,67
673,259	56820,67
673,67	56820,67
674,08	56820,67
674,491	56820,67
674,901	56820,67
675,312	56820,67
675,722	56820,67
676,133	56820,67
676,543	56820,67
676,953	56820,67
677,363	56820,67
677,773	56820,67
678,183	56820,67
678,593	56820,67
679,003	56820,67
679,413	56820,67
679,823	56820,67
680,233	56820,67
680,643	56820,67
681,052	56820,67
681,462	56820,67
681,872	56820,67
682,281	56820,67
682,691	56820,67
683,1	56820,67
683,509	56820,67
683,919	56820,67
684,328	56820,67
684,737	56820,67
685,146	56820,67
685,555	56820,67
685,964	56820,67
686,373	56820,67
686,782	56820,67
687,191	56820,67
687,6	56820,67
688,009	56820,67
688,417	56820,67
688,826	56820,67
689,235	56820,67
689,643	56820,67
690,052	56820,67
690,46	56820,67
690,869	56820,67
691,277	56820,67
691,685	56820,67
692,093	56820,67
692,502	56820,67
692,91	56820,67
693,318	56820,67
693,726	56820,67
694,134	56820,67
694,542	56820,67
694,949	56820,67
695,357	56820,67
695,765	56820,67
696,173	56820,67
696,58	56820,67
696,988	56820,67
697,395	56820,67
697,803	56820,67
698,21	56820,67
698,618	56820,67
699,025	56820,67
699,432	56820,67
699,839	56820,67
700,247	56820,67
700,654	56820,67
701,061	56820,67
701,468	56820,67
701,875	56820,67
702,281	56820,67
702,688	56820,67
703,095	56820,67
703,502	56820,67
703,908	56820,67
704,315	56820,67
704,722	56820,67
705,128	56820,67
705,534	56820,67
705,941	56820,67
706,347	56820,67
706,753	56820,67
707,16	56820,67
707,566	56820,67
707,972	56820,67
708,378	56820,67
708,784	56820,67
709,19	56820,67
709,596	56820,67
710,002	56820,67
710,407	56820,67
710,813	56820,67
711,219	56820,67
711,625	56820,67
712,03	56820,67
712,436	56820,67
712,841	56820,67
713,246	56820,67
713,652	56820,67
714,057	56820,67
714,462	56820,67
714,868	56820,67
715,273	56820,67
715,678	56820,67
716,083	56820,67
716,488	56820,67
716,893	56820,67
717,297	56820,67
717,702	56820,67
718,107	56820,67
718,512	56820,67
718,916	56820,67
719,321	56820,67
719,725	56820,67
720,13	56820,67
720,534	56820,67
720,939	56820,67
721,343	56820,67
721,747	56820,67
722,151	56820,67
722,556	56820,67
722,96	56820,67
723,364	56820,67
723,768	56820,67
724,172	56820,67
724,576	56820,67
724,979	56820,67
725,383	56820,67
725,787	56820,67
726,19	56820,67
726,594	56820,67
726,998	56820,67
727,401	56820,67
727,805	56820,67
728,208	56820,67
728,611	56820,67
729,014	56820,67
729,418	56820,67
729,821	56820,67
730,224	56820,67
730,627	56820,67
731,03	56820,67
731,433	56820,67
731,836	56820,67
732,239	56820,67
732,641	56820,67
733,044	56820,67
733,447	56820,67
733,849	56820,67
734,252	56820,67
734,654	56820,67
735,057	56820,67
735,459	56820,67
735,862	56820,67
736,264	56820,67
736,666	56820,67
737,068	56820,67
737,47	56820,67
737,872	56820,67
738,274	56820,67
738,676	56820,67
739,078	56820,67
739,48	56820,67
739,882	56820,67
740,284	56820,67
740,685	56820,67
741,087	56820,67
741,488	56820,67
741,89	56820,67
742,291	56820,67
742,693	56820,67
743,094	56820,67
743,495	56820,67
743,897	56820,67
744,298	56820,67
744,699	56820,67
745,1	56820,67
745,501	56820,67
745,902	56820,67
746,303	56820,67
746,704	56820,67
747,105	56820,67
747,505	56820,67
747,906	56820,67
748,307	56820,67
748,707	56820,67
749,108	56820,67
749,508	56820,67
749,908	56820,67
750,309	56820,67
750,709	56820,67
751,109	56820,67
751,51	56820,67
751,91	56820,67
752,31	56820,67
752,71	56820,67
753,11	56820,67
753,51	56820,67
753,909	56820,67
754,309	56820,67
754,709	56820,67
755,109	56820,67
755,508	56820,67
755,908	56820,67
756,307	56820,67
756,707	56820,67
757,106	56820,67
757,505	56820,67
757,905	56820,67
758,304	56820,67
758,703	56820,67
759,102	56621,34
759,501	50045,99
759,9	39748,42
760,299	30571,96
760,698	27204,7
761,097	27701,68
761,496	30195,13
761,895	30540,36
762,293	30096,05
762,692	30364,82
763,09	31323,27
763,489	32677,27
763,887	34601,19
764,286	36968,64
764,684	40000,41
765,082	43414,87
765,481	46425,18
765,879	49142,55
766,277	51004,05
766,675	52800,02
767,073	54081,08
767,471	55124,18
767,869	55598,52
768,267	55866,13
768,664	56184,83
769,062	56122,8
769,46	56349,06
769,857	56280,01
770,255	56225,01
770,653	56152,45
771,05	56096,28
771,447	55976,52
771,845	55974,96
772,242	55968,72
772,639	55743,64
773,036	55773,28
773,433	55556,78
773,831	55332,09
774,228	55309,08
774,624	55062,15
775,021	54735,65
775,418	54706,39
775,815	54932,25
776,212	54475,46
776,608	54631,49
777,005	54193,42
777,401	54024,12
777,798	53747,55
778,194	53502,57
778,591	53295,83
778,987	53086,35
779,383	52595,62
779,78	52515,65
780,176	52791,44
780,572	52237,12
780,968	52404,47
781,364	52275,74
781,76	51907,5
782,156	51707,38
782,551	51184,66
782,947	50979,48
783,343	50930,72
783,739	50620,98
784,134	50818,76
784,53	50349,09
784,925	50146,64
785,321	50231,29
785,716	50230,12
786,111	49989,82
786,507	49554,87
786,902	49768,25
787,297	48648,69
787,692	48893,67
788,087	48195,41
788,482	47954,72
788,877	48046,01
789,272	47178,84
789,667	47323,95
790,061	46793,04
790,456	46426,74
790,851	46294,89
791,245	46001,55
791,64	45051,29
792,034	44949,87
792,429	44913,98
792,823	44944,8
793,217	44191,53
793,612	44020,28
794,006	43972,69
794,4	43962,94
794,794	43047,4
795,188	43371,18
795,582	42493,47
795,976	42602,7
796,37	42778,63
796,763	43071,59
797,157	42876,15
797,551	42269,95
797,944	42263,32
798,338	40914
798,731	42125,23
799,125	41287,32
799,518	40770,84
799,912	40986,56
800,305	39725,4
800,698	39771,43
801,091	40307,41
801,484	39516,7
801,877	38992,03
802,27	39740,61
802,663	38702,59
803,056	38627,69
803,449	38275,83
803,842	38414,7
804,235	37518,67
804,627	37751,55
805,02	37452,35
805,412	37714,88
805,805	37241,7
806,197	36919,1
806,59	36860,58
806,982	36699,09
807,374	36299,25
807,766	36138,92
808,159	35824,9
808,551	35368,49
808,943	34950,71
809,335	34605,09
809,727	34262,98
810,118	34582,85
810,51	34246,21
810,902	33622,45
811,294	33313,5
811,685	33512,84
812,077	33070,09
812,468	31936,88
812,86	31427,03
813,251	30678,45
813,643	29940,01
814,034	29328,35
814,425	28844,64
814,816	28151,84
815,207	27343,97
815,598	26838,8
815,989	25890,1
816,38	25645,52
816,771	25542,92
817,162	25377,14
817,553	24923,85
817,944	24926,58
818,334	24949,6
818,725	24590,33
819,115	24633,63
819,506	24595,4
819,896	25660,34
820,287	26063,69
820,677	26712,02
821,067	26433,11
821,457	25967,34
821,848	25177,8
822,238	23423,96
822,628	22404,66
823,018	22356,68
823,408	22728,43
823,797	23804,69
824,187	24240,42
824,577	24822,43
824,967	25005,77
825,356	24691,36
825,746	25116,95
826,135	25050,24
826,525	24887,18
826,914	24444,04
827,304	23706,38
827,693	23274,17
828,082	23051,42
828,471	22939,47
828,86	22836,88
829,249	22698
829,638	22856,77
830,027	22757,69
830,416	22652,36
830,805	22637,15
831,194	22662,51
831,582	22305,57
831,971	22107,02
832,36	22109,36
832,748	21939,28
833,137	21863,21
833,525	21727,85
833,914	22013,79
834,302	21961,9
834,69	22173,72
835,078	22229,12
835,466	22072,69
835,854	22037,58
836,243	22010,28
836,63	21613,56
837,018	21741,5
837,406	21529,69
837,794	21607,31
838,182	21704,84
838,569	21460,25
838,957	21298,75
839,345	21169,24
839,732	21200,06
840,12	20790,08
840,507	21055,34
840,894	20958,21
841,282	20355,52
841,669	20478,79
842,056	20374,63
842,443	20512,33
842,83	20165,93
843,217	19681,44
843,604	19554,66
843,991	19329,97
844,378	19243,76
844,764	19302,28
845,151	19443,49
845,538	19186,03
845,924	19015,56
846,311	18836,9
846,697	18697,25
847,084	18417,94
847,47	18258,4
847,856	18085,2
848,242	18216,27
848,629	17661,17
849,015	17176,68
849,401	16655,52
849,787	15972,08
850,173	15877,68
850,559	16235
850,944	16159,33
851,33	16071,95
851,716	15891,34
852,102	15941,27
852,487	15582,38
852,873	15308,93
853,258	14242,04
853,644	13230,15
854,029	12499,51
854,414	12336,06
854,799	12989,07
855,185	13443,14
855,57	13592,54
855,955	13946,35
856,34	13875,35
856,725	13901,88
857,11	13934,65
857,495	13890,96
857,879	14171,04
858,264	13985,75
858,649	13891,35
859,033	13778,22
859,418	13445,87
859,802	13231,32
860,187	13140,43
860,571	12903,25
860,955	12893,89
861,34	12697,28
861,724	12452,7
862,108	12491,71
862,492	12422,27
862,876	12384,82
863,26	12057,93
863,644	12160,52
864,028	12016,97
864,412	11914,38
864,795	11520,38
865,179	10972,31
865,563	10329,83
865,946	9525,47
866,33	9301,56
866,713	9231,73
867,097	9702,18
867,48	9853,53
867,863	9708,03
868,246	9778,25
868,629	9558,63
869,013	9635,08
869,396	9464,22
869,779	9516,89
870,161	9586,71
870,544	9549,26
870,927	9318,33
871,31	9021,47
871,693	9131,48
872,075	8768,31
872,458	8737,88
872,84	8595,5
873,223	8382,12
873,605	8327,11
873,987	8182
874,37	7907,38
874,752	7765
875,134	7738,47
875,516	7599,6
875,898	7594,14
876,28	7455,26
876,662	7299,23
877,044	7071,81
877,426	6998,86
877,807	7009,78
878,189	6920,84
878,571	6836,19
878,952	6851,02
879,334	6724,24
879,715	6646,22
880,097	6562,74
880,478	6450,78
880,859	6663,38
881,24	6552,99
881,622	6484,33
882,003	6674,31
882,384	6723,85
882,765	6664,16
883,146	6776,51
883,526	6863,89
883,907	6970,77
884,288	7012,51
884,669	7137,34
885,049	7255,93
885,43	7346,04
885,81	7400,26
886,191	7468,92
886,571	7261,78
886,952	7558,25
887,332	7641,73
887,712	7836,38
888,092	7875
888,472	8031,82
888,852	8201,12
889,232	8040,79
889,612	8489
889,992	8365,34
890,372	8435,56
890,752	8583,01
891,131	8617,73
891,511	8464,43
891,89	8341,55
892,27	8185,9
892,649	8050,54
893,029	7860,18
893,408	7725,99
893,787	7498,17
894,167	7450,97
894,546	7127,2
894,925	6544,41
895,304	6536,99
895,683	6303,72
896,062	5844,98
896,441	5572,3
896,819	5123,7
897,198	4860,39
897,577	4526,47
897,955	4475,37
898,334	4047,44
898,712	3607,81
899,091	3376,49
899,469	3132,3
899,848	2926,72
900,226	2932,57
900,604	2708,66
900,982	2632,98
901,36	2405,56
901,738	2275,66
902,116	2096,61
902,494	2147,71
902,872	2241,33
903,25	2373,96
903,628	2578,37
904,005	2630,64
904,383	2622,06
904,76	2519,07
905,138	2658,73
905,515	2450,81
905,893	2298,28
906,27	2209,73
906,647	1885,96
907,024	1656,2
907,402	1462,71
907,779	1321,89
908,156	1255,58
908,533	967,69
908,91	850,66
909,286	747,29
909,663	762,89
910,04	734,42
910,417	682,53
910,793	617
911,17	620,51
911,546	583,45
911,923	480,86
912,299	654,84
912,675	499,58
913,051	295,96
913,428	196,87
913,804	194,14
914,18	35,38
914,556	3
914,932	114,95
915,308	-73,85
915,683	-92,18
916,059	-196,34
916,435	-191,27
916,811	-288,79
917,186	-285,28
917,562	-287,23
917,937	-472,13
918,313	-492,8
918,688	-367,98
919,063	-428,83
919,438	-318,04
919,814	-229,88
920,189	-348,08
920,564	-268,89
920,939	-271,62
921,314	-441,31
921,689	-380,46
922,063	-568,87
922,438	-467,06
922,813	-600,08
923,187	-652,35
923,562	-768,21
923,936	-815,8
924,311	-757,29
924,685	-882,5
925,06	-953,11
925,434	-884,45
925,808	-967,93
926,182	-1027,23
926,556	-1003,82
926,93	-1152,45
927,304	-1125,14
927,678	-1216,03
928,052	-1224,61
928,426	-1359,97
928,8	-1453,98
929,173	-1602,61
929,547	-1722,76
929,92	-1872,94
930,294	-1966,56
930,667	-2145,22
931,041	-2306,33
931,414	-2467,44
931,787	-2535,31
932,161	-2710,46
932,534	-2953,88
932,907	-3077,15
933,28	-3196,12
933,653	-3345,92
934,026	-3421,99
934,398	-3637,7
934,771	-3688,42
935,144	-3757,46
935,517	-3798,03
935,889	-3796,08
936,262	-3828,46
936,634	-3849,13
937,007	-3906,87
937,379	-3960,31
937,751	-4030,91
938,123	-4034,82
938,496	-4045,35
938,868	-4025,84
939,24	-3990,74
939,612	-3933,39
939,984	-3858,5
940,355	-3875,66
940,727	-3825,34
941,099	-3907,26
941,471	-3925,2
941,842	-3911,94
942,214	-3914,67
942,585	-3927,15
942,957	-3958,36
943,328	-4039,5
943,7	-4051,59
944,071	-4044,18
944,442	-4161,2
944,813	-4206,84
945,184	-4217,38
945,555	-4218,16
945,926	-4229,08
946,297	-4194,75
946,668	-4212,7
947,039	-4260,68
947,409	-4283,3
947,78	-4267,7
948,151	-4228,69
948,521	-4188,12
948,892	-4210,75
949,262	-4152,23
949,633	-4149,89
950,003	-4146,38
950,373	-4162,37
950,743	-4202,16
951,113	-4159,25
951,483	-4133,9
951,853	-4116,34
952,223	-4093,33
952,593	-4064,46
952,963	-4115,17
953,333	-4129,22
953,702	-4108,93
954,072	-4071,87
954,442	-4035,6
954,811	-4026,23
955,181	-4035,99
955,55	-4048,47
955,919	-4035,21
956,289	-4024,67
956,658	-4059,78
957,027	-4073,82
957,396	-3991,91
957,765	-4066,02
958,134	-3996,98
958,503	-3971,62
958,872	-3935,73
959,24	-3948,61
959,609	-3956,41
959,978	-3974,74
960,346	-3993,08
960,715	-3967,72
961,083	-4007,9
961,452	-3960,7
961,82	-3973,18
962,188	-3957,97
962,557	-3889,7
962,925	-3888,92
963,293	-3905,31
963,661	-3886,19
964,029	-3879,95
964,397	-3904,14
964,765	-3853,42
965,133	-3882,29
965,5	-3874,1
965,868	-3874,1
966,236	-3876,83
966,603	-3866,3
966,971	-3838,99
967,338	-3860,84
967,706	-3874,49
968,073	-3870,98
968,44	-3845,23
968,807	-3840,16
969,174	-3748,88
969,542	-3780,87
969,909	-3771,12
970,275	-3728,99
970,642	-3725,08
971,009	-3729,77
971,376	-3672,42
971,743	-3715,33
972,109	-3725,47
972,476	-3726,25
972,842	-3704,8
973,209	-3702,46
973,575	-3714,55
973,942	-3713,77
974,308	-3754,73
974,674	-3825,73
975,04	-3828,07
975,406	-3804,27
975,772	-3851,86
976,138	-3839,77
976,504	-3899,84
976,87	-3903,75
977,236	-3895,55
977,602	-3874,49
977,967	-3915,84
978,333	-3843,28
978,698	-3950,95
979,064	-3951,34
979,429	-3904,14
979,795	-3905,7
980,16	-3897,89
980,525	-3892,82
980,89	-3929,1
981,255	-3907,26
981,621	-3924,81
981,986	-3922,86
982,35	-3958,36
982,715	-3911,16
983,08	-3929,1
983,445	-3961,87
983,81	-3925,2
984,174	-3910,77
984,539	-3986,83
984,903	-3968,11
985,268	-3950,17
985,632	-3950,17
985,996	-3941,58
986,361	-3976,3
986,725	-3978,64
987,089	-3953,29
987,453	-3959,92
987,817	-3949,78
988,181	-3948,61
988,545	-3962,65
988,909	-3965,38
989,272	-4036,38
989,636	-4016,87
990	-4001,27
990,363	-4007,12
990,727	-4042,23
991,09	-4041,06
991,454	-4067,19
991,817	-4066,8
992,18	-4011,02
992,543	-4073,82
992,907	-4079,29
993,27	-4078,12
993,633	-4075,38
993,996	-4089,43
994,359	-4067,19
994,721	-4117,12
995,084	-4076,95
995,447	-4101,13
995,81	-4086,31
996,172	-4121,42
996,535	-4099,18
996,897	-4122,98
997,259	-4171,74
997,622	-4153,79
997,984	-4112,83
998,346	-4110,88
998,708	-4108,54
999,071	-4165,11
999,433	-4099,57
999,795	-4143,65
1000,156	-4167,84
1000,518	-4157,69
1000,88	-4190,85
1001,242	-4189,29
1001,603	-4182,27
1001,965	-4198,65
1002,327	-4169,79
1002,688	-4196,7
1003,049	-4241,56
1003,411	-4202,94
1003,772	-4227,91
1004,133	-4240
1004,495	-4236,49
1004,856	-4211,92
1005,217	-4230,25
1005,578	-4247,02
1005,939	-4224,4
1006,299	-4223,62
1006,66	-4267,31
1007,021	-4212,7
1007,382	-4261,46
1007,742	-4242,34
1008,103	-4231,03
1008,463	-4273,94
1008,824	-4242,73
1009,184	-4256
1009,544	-4258,34
1009,904	-4244,68
1010,265	-4277,45
1010,625	-4257,56
1010,985	-4254,83
1011,345	-4312,95
1011,705	-4269,65
1012,065	-4242,34
1012,424	-4261,07
1012,784	-4294,22
1013,144	-4277,06
1013,503	-4261,46
1013,863	-4275,89
1014,222	-4261,46
1014,582	-4288,37
1014,941	-4271,99
1015,3	-4299,69
1015,66	-4273,55
1016,019	-4242,73
1016,378	-4271,21
1016,737	-4294,22
1017,096	-4259,51
1017,455	-4270,43
1017,814	-4296,57
1018,173	-4263,8
1018,531	-4292,27
1018,89	-4264,97
1019,249	-4242,73
1019,607	-4247,41
1019,966	-4281,35
1020,324	-4263,8
1020,682	-4278,62
1021,041	-4304,37
1021,399	-4240,39
1021,757	-4291,88
1022,115	-4262,63
1022,473	-4284,86
1022,831	-4249,36
1023,189	-4237,66
1023,547	-4229,08
1023,905	-4263,8
1024,263	-4233,37
1024,62	-4263,8
1024,978	-4252,88
1025,335	-4242,34
1025,693	-4266,53
1026,05	-4221,67
1026,408	-4263,41
1026,765	-4248,19
1027,122	-4230,64
1027,479	-4217,77
1027,837	-4197,09
1028,194	-4216,6
1028,551	-4221,28
1028,908	-4246,63
1029,264	-4223,62
1029,621	-4216,6
1029,978	-4192,8
1030,335	-4221,28
1030,691	-4244,29
1031,048	-4171,35
1031,404	-4214,65
1031,761	-4166,28
1032,117	-4177,98
1032,473	-4195,14
1032,83	-4184,61
1033,186	-4178,76
1033,542	-4181,1
1033,898	-4192,41
1034,254	-4161,2
1034,61	-4161,2
1034,966	-4161,2
