Data from FLMS055071__6__14-16-04-810.txt Node

Date: Wed Apr 28 14:16:04 CEST 2021
User: thoma
Spectrometer: FLMS05507
Trigger mode: 0
Integration Time (sec): 1,000000E-3
Scans to average: 1
Electric dark correction enabled: false
Nonlinearity correction enabled: false
Boxcar width: 0
XAxis mode: Wavelengths
Number of Pixels in Spectrum: 2048
>>>>>Begin Spectral Data<<<<<
188,96	2717,36
189,424	2717,36
189,887	2717,36
190,351	2670,55
190,815	2614,38
191,279	2626,08
191,742	2644,81
192,206	2668,21
192,669	2658,85
193,133	2649,49
193,596	2612,04
194,06	2691,62
194,523	2661,19
194,987	2708
195,45	2778,22
195,913	2726,72
196,376	2771,19
196,84	2780,56
197,303	2836,73
197,766	2778,22
198,229	2841,41
198,692	2796,94
199,155	2853,11
199,618	2853,11
200,081	2918,65
200,543	2888,22
201,006	2923,33
201,469	2960,78
201,932	2942,05
202,394	2984,18
202,857	2995,89
203,32	2977,16
203,782	2906,95
204,245	3023,97
204,707	2993,55
205,169	2946,73
205,632	3012,27
206,094	2925,67
206,556	2974,82
207,019	2970,14
207,481	2993,55
207,943	3073,12
208,405	3023,97
208,867	3016,95
209,329	2935,03
209,791	2974,82
210,253	3009,93
210,715	3012,27
211,177	3023,97
211,639	2986,52
212,1	3035,67
212,562	2995,89
213,024	2974,82
213,485	3040,36
213,947	2984,18
214,408	3000,57
214,87	3026,31
215,331	2993,55
215,793	3035,67
216,254	2974,82
216,715	2991,2
217,177	2986,52
217,638	3002,91
218,099	3042,7
218,56	2984,18
219,021	2939,71
219,482	3016,95
219,944	3035,67
220,404	2960,78
220,865	2993,55
221,326	3045,04
221,787	2986,52
222,248	2967,8
222,709	2991,2
223,169	3026,31
223,63	3070,78
224,091	2998,23
224,551	2937,37
225,012	3014,61
225,472	2953,76
225,933	2923,33
226,393	2995,89
226,854	2993,55
227,314	2899,92
227,774	2953,76
228,234	2986,52
228,695	2988,86
229,155	3016,95
229,615	2946,73
230,075	2967,8
230,535	3002,91
230,995	2958,44
231,455	3009,93
231,915	2974,82
232,375	2970,14
232,834	2979,5
233,294	3012,27
233,754	3028,65
234,214	3016,95
234,673	2977,16
235,133	3038,02
235,592	2979,5
236,052	2995,89
236,511	2953,76
236,971	2993,55
237,43	3023,97
237,889	3005,25
238,349	3016,95
238,808	2911,63
239,267	3045,04
239,726	2979,5
240,185	3012,27
240,644	3023,97
241,103	3035,67
241,562	2958,44
242,021	3038,02
242,48	2984,18
242,939	2998,23
243,398	2991,2
243,857	3007,59
244,315	3056,74
244,774	2979,5
245,233	2935,03
245,691	2944,39
246,15	2991,2
246,608	3009,93
247,067	2995,89
247,525	2944,39
247,983	3023,97
248,442	2967,8
248,9	3009,93
249,358	3021,63
249,816	2944,39
250,274	3045,04
250,733	3068,44
251,191	2972,48
251,649	2998,23
252,107	3061,42
252,564	2892,9
253,022	3030,99
253,48	3009,93
253,938	2995,89
254,396	2951,42
254,853	3026,31
255,311	2988,86
255,769	2963,12
256,226	2942,05
256,684	2991,2
257,141	2967,8
257,599	2935,03
258,056	2995,89
258,513	3028,65
258,971	3009,93
259,428	3016,95
259,885	2967,8
260,342	2979,5
260,799	2972,48
261,256	3066,1
261,714	3000,57
262,171	3016,95
262,627	3070,78
263,084	3023,97
263,541	3023,97
263,998	3019,29
264,455	2986,52
264,912	2979,5
265,368	3012,27
265,825	2988,86
266,281	3019,29
266,738	3016,95
267,194	3014,61
267,651	2988,86
268,107	2958,44
268,564	2995,89
269,02	3028,65
269,476	3068,44
269,933	2986,52
270,389	3063,76
270,845	2979,5
271,301	3080,14
271,757	3026,31
272,213	2988,86
272,669	2967,8
273,125	2995,89
273,581	2946,73
274,037	3042,7
274,492	2972,48
274,948	3012,27
275,404	2965,46
275,86	3040,36
276,315	2951,42
276,771	3014,61
277,226	2965,46
277,682	2960,78
278,137	3002,91
278,593	3038,02
279,048	2979,5
279,503	3091,85
279,958	2972,48
280,414	3035,67
280,869	3033,33
281,324	2963,12
281,779	3066,1
282,234	3019,29
282,689	3056,74
283,144	3012,27
283,599	2967,8
284,054	2963,12
284,508	2986,52
284,963	3028,65
285,418	3035,67
285,873	2946,73
286,327	3052,06
286,782	2979,5
287,236	2935,03
287,691	3047,38
288,145	3026,31
288,6	3012,27
289,054	3028,65
289,508	2995,89
289,963	3019,29
290,417	3075,46
290,871	2993,55
291,325	2963,12
291,779	2970,14
292,233	3014,61
292,687	3066,1
293,141	3021,63
293,595	2995,89
294,049	2991,2
294,503	2960,78
294,957	3033,33
295,41	2998,23
295,864	3007,59
296,318	2967,8
296,771	3038,02
297,225	3012,27
297,678	2995,89
298,132	2944,39
298,585	3030,99
299,039	3047,38
299,492	3021,63
299,945	3021,63
300,398	2972,48
300,852	2998,23
301,305	3000,57
301,758	3045,04
302,211	2998,23
302,664	3075,46
303,117	2995,89
303,57	3075,46
304,023	3047,38
304,476	3023,97
304,928	2972,48
305,381	2998,23
305,834	3000,57
306,286	3038,02
306,739	2960,78
307,192	3061,42
307,644	3000,57
308,097	3066,1
308,549	3056,74
309,001	3023,97
309,454	3087,17
309,906	3056,74
310,358	3000,57
310,81	3033,33
311,263	3049,72
311,715	3054,4
312,167	3028,65
312,619	3066,1
313,071	3068,44
313,523	3091,85
313,975	3056,74
314,426	3056,74
314,878	3056,74
315,33	3035,67
315,782	3052,06
316,233	3056,74
316,685	3066,1
317,136	3080,14
317,588	3066,1
318,039	3110,57
318,491	3042,7
318,942	3098,87
319,393	3143,34
319,845	3112,91
320,296	3052,06
320,747	3082,49
321,198	3105,89
321,649	3110,57
322,101	3108,23
322,552	3143,34
323,003	3070,78
323,453	3073,12
323,904	3103,55
324,355	3124,62
324,806	3157,38
325,257	3101,21
325,707	3117,59
326,158	3178,45
326,609	3110,57
327,059	3159,72
327,51	3187,81
327,96	3138,66
328,411	3215,9
328,861	3239,3
329,311	3183,13
329,762	3155,04
330,212	3131,64
330,662	3098,87
331,112	3199,51
331,562	3124,62
332,012	3115,25
332,462	3197,17
332,912	3255,69
333,362	3208,87
333,812	3180,79
334,262	3176,11
334,712	3178,45
335,161	3185,47
335,611	3185,47
336,061	3157,38
336,51	3178,45
336,96	3192,49
337,409	3206,53
337,859	3169,09
338,308	3197,17
338,758	3164,4
339,207	3218,24
339,656	3201,85
340,105	3173,77
340,555	3197,17
341,004	3204,19
341,453	3171,43
341,902	3129,3
342,351	3283,77
342,8	3187,81
343,249	3300,16
343,698	3246,32
344,146	3173,77
344,595	3236,96
345,044	3145,68
345,493	3159,72
345,941	3288,45
346,39	3241,64
346,838	3190,15
347,287	3213,56
347,735	3243,98
348,184	3145,68
348,632	3276,75
349,08	3190,15
349,529	3201,85
349,977	3178,45
350,425	3265,05
350,873	3293,13
351,321	3325,9
351,769	3222,92
352,217	3173,77
352,665	3227,6
353,113	3232,28
353,561	3281,43
354,009	3286,11
354,456	3246,32
354,904	3269,73
355,352	3267,39
355,799	3220,58
356,247	3302,5
356,694	3283,77
357,142	3234,62
357,589	3222,92
358,037	3176,11
358,484	3199,51
358,931	3208,87
359,379	3243,98
359,826	3286,11
360,273	3281,43
360,72	3232,28
361,167	3316,54
361,614	3267,39
362,061	3251
362,508	3332,92
362,955	3300,16
363,402	3314,2
363,848	3269,73
364,295	3276,75
364,742	3325,9
365,188	3300,16
365,635	3316,54
366,082	3332,92
366,528	3344,63
366,975	3314,2
367,421	3370,37
367,867	3370,37
368,314	3377,39
368,76	3286,11
369,206	3391,44
369,652	3363,35
370,098	3424,2
370,545	3335,26
370,991	3396,12
371,437	3286,11
371,882	3356,33
372,328	3405,48
372,774	3267,39
373,22	3339,94
373,666	3405,48
374,111	3361,01
374,557	3321,22
375,003	3316,54
375,448	3358,67
375,894	3255,69
376,339	3335,26
376,785	3396,12
377,23	3403,14
377,675	3349,31
378,121	3410,16
378,566	3393,78
379,011	3461,65
379,456	3379,73
379,901	3353,99
380,346	3440,59
380,791	3389,1
381,236	3363,35
381,681	3382,07
382,126	3365,69
382,571	3309,52
383,016	3330,58
383,461	3318,88
383,905	3309,52
384,35	3356,33
384,794	3351,65
385,239	3363,35
385,683	3356,33
386,128	3384,41
386,572	3384,41
387,017	3386,76
387,461	3389,1
387,905	3407,82
388,349	3384,41
388,794	3393,78
389,238	3471,01
389,682	3428,88
390,126	3452,29
390,57	3478,04
391,014	3496,76
391,457	3466,33
391,901	3463,99
392,345	3438,25
392,789	3370,37
393,233	3384,41
393,676	3384,41
394,12	3414,84
394,563	3379,73
395,007	3438,25
395,45	3478,04
395,894	3435,91
396,337	3410,16
396,78	3424,2
397,224	3445,27
397,667	3361,01
398,11	3527,19
398,553	3557,61
398,996	3541,23
399,439	3662,94
399,882	3761,24
400,325	3686,34
400,768	3653,58
401,211	3763,58
401,654	3660,6
402,096	3765,92
402,539	3667,62
402,982	3726,13
403,424	3728,47
403,867	3737,84
404,309	3660,6
404,752	3747,2
405,194	3761,24
405,637	3712,09
406,079	3730,81
406,521	3789,33
406,963	3712,09
407,406	3676,98
407,848	3740,18
408,29	3665,28
408,732	3723,79
409,174	3754,22
409,616	3784,65
410,058	3754,22
410,499	3674,64
410,941	3709,75
411,383	3803,37
411,825	3815,07
412,266	3775,28
412,708	3889,97
413,15	3833,8
413,591	3847,84
414,033	3871,25
414,474	3768,26
414,915	3810,39
415,357	3772,94
415,798	3878,27
416,239	3796,35
416,68	3899,33
417,121	3845,5
417,563	3854,86
418,004	3786,99
418,445	3796,35
418,885	3857,2
419,326	3803,37
419,767	3747,2
420,208	3885,29
420,649	3805,71
421,089	3798,69
421,53	3815,07
421,971	3824,44
422,411	3878,27
422,852	3908,69
423,292	3854,86
423,733	3805,71
424,173	3861,88
424,613	3843,16
425,054	3866,56
425,494	3822,09
425,934	3847,84
426,374	3819,75
426,814	3810,39
427,254	3817,41
427,694	3777,62
428,134	3798,69
428,574	3831,46
429,014	3775,28
429,454	3719,11
429,893	3758,9
430,333	3709,75
430,773	3707,41
431,212	3679,32
431,652	3674,64
432,091	3754,22
432,531	3843,16
432,97	3864,22
433,41	3850,18
433,849	3833,8
434,288	3808,05
434,727	3913,38
435,167	3803,37
435,606	3913,38
436,045	3964,87
436,484	3957,85
436,923	3840,82
437,362	3950,82
437,801	3981,25
438,239	3978,91
438,678	3868,91
439,117	3847,84
439,556	3934,44
439,994	3899,33
440,433	3911,04
440,871	3932,1
441,31	4028,06
441,748	3992,95
442,187	4007
442,625	4051,47
443,063	4014,02
443,502	4086,58
443,94	4039,76
444,378	4107,64
444,816	4112,32
445,254	4018,7
445,692	4016,36
446,13	4007
446,568	4014,02
447,006	4035,08
447,444	4053,81
447,881	4107,64
448,319	4135,73
448,757	4135,73
449,194	4014,02
449,632	4112,32
450,07	4234,03
450,507	4173,18
450,944	4140,41
451,382	4145,09
451,819	4208,28
452,256	4212,96
452,694	4135,73
453,131	4072,53
453,568	4088,92
454,005	4142,75
454,442	4046,79
454,879	4177,86
455,316	4131,05
455,753	4126,36
456,19	4156,79
456,627	4058,49
457,063	4311,27
457,5	4161,47
457,937	4224,67
458,373	4159,13
458,81	4152,11
459,246	4175,52
459,683	4184,88
460,119	4189,56
460,556	4170,83
460,992	4203,6
461,428	4210,62
461,864	4229,35
462,301	4180,2
462,737	4287,86
463,173	4215,3
463,609	4201,26
464,045	4229,35
464,481	4259,77
464,917	4280,84
465,352	4212,96
465,788	4304,25
466,224	4234,03
466,66	4313,61
467,095	4203,6
467,531	4215,3
467,966	4252,75
468,402	4273,82
468,837	4379,14
469,273	4266,8
469,708	4311,27
470,143	4372,12
470,578	4376,8
471,014	4276,16
471,449	4351,06
471,884	4475,1
472,319	4393,19
472,754	4362,76
473,189	4454,04
473,624	4514,89
474,059	4407,23
474,493	4521,91
474,928	4486,81
475,363	4524,26
475,797	4545,32
476,232	4617,88
476,667	4552,34
477,101	4648,3
477,536	4718,52
477,97	4718,52
478,404	4634,26
478,839	4718,52
479,273	4910,44
479,707	4758,31
480,141	4716,18
480,575	4837,89
481,009	4870,65
481,444	4840,23
481,877	4830,87
482,311	4917,47
482,745	4992,36
483,179	4854,27
483,613	4964,28
484,047	4936,19
484,48	4741,93
484,914	5018,11
485,347	4849,59
485,781	4835,55
486,214	4882,36
486,648	4741,93
487,081	4837,89
487,515	4716,18
487,948	4933,85
488,381	4873
488,814	4952,57
489,247	5034,49
489,68	5142,16
490,113	5025,13
490,546	5060,24
490,979	5104,71
491,412	5123,43
491,845	4938,53
492,278	4987,68
492,711	4999,38
493,143	5041,51
493,576	5032,15
494,009	5107,05
494,441	5146,84
494,874	5090,67
495,306	5219,39
495,738	5177,26
496,171	5158,54
496,603	5184,29
497,035	5146,84
497,467	5046,19
497,9	5118,75
498,332	5114,07
498,764	5170,24
499,196	5151,52
499,628	5020,45
500,06	5090,67
500,491	5116,41
500,923	5083,64
501,355	5135,14
501,787	5027,47
502,218	5034,49
502,65	5088,32
503,081	5006,41
503,513	5177,26
503,944	5146,84
504,376	5062,58
504,807	5163,22
505,238	5226,42
505,67	5160,88
506,101	5221,74
506,532	5282,59
506,963	5200,67
507,394	5266,21
507,825	5195,99
508,256	5231,1
508,687	5261,52
509,118	5219,39
509,549	5233,44
509,979	5263,86
510,41	5240,46
510,841	5203,01
511,271	5186,63
511,702	5301,31
512,132	5284,93
512,563	5142,16
512,993	5226,42
513,424	5259,18
513,854	5107,05
514,284	5186,63
514,714	5130,45
515,145	5158,54
515,575	5174,92
516,005	5238,12
516,435	5048,54
516,865	5053,22
517,295	4959,6
517,724	4950,23
518,154	5055,56
518,584	4971,3
519,014	5085,98
519,443	5081,3
519,873	5137,48
520,303	5085,98
520,732	5165,56
521,161	5158,54
521,591	5090,67
522,02	5240,46
522,45	5135,14
522,879	5146,84
523,308	5160,88
523,737	5156,2
524,166	5254,5
524,595	5195,99
525,024	5179,61
525,453	5111,73
525,882	5100,03
526,311	4919,81
526,74	5071,94
527,169	5102,37
527,597	5011,09
528,026	5095,35
528,455	5139,82
528,883	5095,35
529,312	5095,35
529,74	5200,67
530,168	5210,03
530,597	5085,98
531,025	5177,26
531,453	5294,29
531,882	5139,82
532,31	5116,41
532,738	5130,45
533,166	5137,48
533,594	5055,56
534,022	5081,3
534,45	5055,56
534,878	5071,94
535,305	5095,35
535,733	5076,62
536,161	5179,61
536,588	5142,16
537,016	5142,16
537,444	5149,18
537,871	5135,14
538,299	5032,15
538,726	5135,14
539,153	5102,37
539,581	5057,9
540,008	5069,6
540,435	4971,3
540,862	5032,15
541,289	4940,87
541,716	5036,83
542,143	5027,47
542,57	5057,9
542,997	5093,01
543,424	5142,16
543,851	5104,71
544,277	5020,45
544,704	5083,64
545,131	5034,49
545,557	5055,56
545,984	5116,41
546,41	5069,6
546,837	5128,11
547,263	5020,45
547,69	5048,54
548,116	5064,92
548,542	5158,54
548,968	5020,45
549,394	5125,77
549,82	5060,24
550,246	5114,07
550,672	5100,03
551,098	5107,05
551,524	5074,28
551,95	5177,26
552,376	5097,69
552,802	5100,03
553,227	5041,51
553,653	5053,22
554,078	5109,39
554,504	5177,26
554,929	5146,84
555,355	5130,45
555,78	5165,56
556,206	5085,98
556,631	5076,62
557,056	5085,98
557,481	5067,26
557,906	5006,41
558,331	4994,7
558,756	4971,3
559,181	4915,12
559,606	4929,17
560,031	4931,51
560,456	5004,07
560,881	4987,68
561,305	4983
561,73	5013,43
562,155	4964,28
562,579	5074,28
563,004	4922,15
563,428	5022,79
563,853	4999,38
564,277	5004,07
564,701	4964,28
565,126	4926,83
565,55	5008,75
565,974	4940,87
566,398	4990,02
566,822	4966,62
567,246	4943,21
567,67	4926,83
568,094	4950,23
568,518	5076,62
568,941	4929,17
569,365	4945,55
569,789	4924,49
570,213	4912,78
570,636	4877,68
571,06	4844,91
571,483	4812,14
571,907	4931,51
572,33	5025,13
572,753	4926,83
573,177	4947,89
573,6	4978,32
574,023	5104,71
574,446	5015,77
574,869	4905,76
575,292	5046,19
575,715	4968,96
576,138	4887,04
576,561	4908,1
576,984	4875,34
577,407	4940,87
577,829	4856,61
578,252	4814,48
578,675	4746,61
579,097	4837,89
579,52	4865,97
579,942	4809,8
580,364	4896,4
580,787	4805,12
581,209	4861,29
581,631	4781,71
582,054	4865,97
582,476	4678,73
582,898	4835,55
583,32	4891,72
583,742	4847,25
584,164	4842,57
584,586	4809,8
585,008	4770,01
585,429	4741,93
585,851	4791,08
586,273	4770,01
586,694	4889,38
587,116	4774,69
587,538	4774,69
587,959	4730,22
588,38	4713,84
588,802	4681,07
589,223	4533,62
589,644	4580,43
590,066	4690,43
590,487	4643,62
590,908	4636,6
591,329	4746,61
591,75	4652,98
592,171	4688,09
592,592	4688,09
593,013	4648,3
593,434	4805,12
593,854	4660,01
594,275	4650,64
594,696	4599,15
595,116	4770,01
595,537	4788,74
595,957	4786,4
596,378	4720,86
596,798	4858,95
597,218	4882,36
597,639	4793,42
598,059	4751,29
598,479	4751,29
598,899	4711,5
599,319	4751,29
599,739	4603,83
600,159	4751,29
600,579	4685,75
600,999	4798,1
601,419	4709,16
601,839	4748,95
602,259	4690,43
602,678	4699,8
603,098	4676,39
603,517	4688,09
603,937	4704,48
604,356	4725,54
604,776	4557,02
605,195	4704,48
605,614	4674,05
606,034	4606,17
606,453	4664,69
606,872	4585,11
607,291	4662,35
607,71	4685,75
608,129	4603,83
608,548	4601,49
608,967	4688,09
609,386	4561,7
609,805	4479,79
610,223	4557,02
610,642	4465,74
611,061	4533,62
611,479	4531,28
611,898	4432,97
612,316	4458,72
612,735	4458,72
613,153	4512,55
613,571	4407,23
613,99	4461,06
614,408	4376,8
614,826	4372,12
615,244	4411,91
615,662	4346,37
616,08	4315,95
616,498	4367,44
616,916	4393,19
617,334	4414,25
617,752	4315,95
618,169	4369,78
618,587	4400,21
619,005	4386,16
619,422	4339,35
619,84	4379,14
620,257	4411,91
620,675	4299,56
621,092	4456,38
621,509	4301,9
621,927	4294,88
622,344	4334,67
622,761	4362,76
623,178	4365,1
623,595	4325,31
624,012	4243,39
624,429	4318,29
624,846	4318,29
625,263	4273,82
625,68	4252,75
626,097	4367,44
626,513	4259,77
626,93	4334,67
627,346	4344,03
627,763	4325,31
628,179	4278,5
628,596	4229,35
629,012	4280,84
629,429	4271,48
629,845	4234,03
630,261	4252,75
630,677	4140,41
631,093	4184,88
631,509	4152,11
631,925	4212,96
632,341	4222,33
632,757	4198,92
633,173	4145,09
633,589	4189,56
634,005	4257,43
634,42	4149,77
634,836	4114,66
635,252	4224,67
635,667	4166,15
636,083	4154,45
636,498	4175,52
636,913	4133,39
637,329	4170,83
637,744	4234,03
638,159	4173,18
638,574	4163,81
638,99	4166,15
639,405	4114,66
639,82	4189,56
640,235	4191,9
640,65	4215,3
641,064	4126,36
641,479	4161,47
641,894	4180,2
642,309	4187,22
642,723	4222,33
643,138	4051,47
643,552	4194,24
643,967	4124,02
644,381	4138,07
644,796	4051,47
645,21	4154,45
645,624	4154,45
646,038	4119,34
646,453	4079,55
646,867	4088,92
647,281	4060,83
647,695	4117
648,109	4098,28
648,523	4135,73
648,936	4079,55
649,35	4046,79
649,764	4149,77
650,178	4088,92
650,591	4060,83
651,005	4102,96
651,418	4156,79
651,832	4156,79
652,245	4098,28
652,659	4135,73
653,072	4063,17
653,485	3999,98
653,898	4112,32
654,312	4060,83
654,725	4074,87
655,138	3962,53
655,551	3992,95
655,964	4049,13
656,377	3925,08
656,789	3889,97
657,202	3936,78
657,615	4021,04
658,028	3974,23
658,44	3988,27
658,853	3988,27
659,265	4030,4
659,678	4044,45
660,09	3964,87
660,503	3962,53
660,915	3999,98
661,327	3978,91
661,739	3953,16
662,152	3899,33
662,564	4007
662,976	4044,45
663,388	4084,23
663,8	4030,4
664,211	4039,76
664,623	4004,66
665,035	3934,44
665,447	3955,51
665,858	4011,68
666,27	4002,32
666,682	3990,61
667,093	3936,78
667,505	3885,29
667,916	3988,27
668,327	3946,14
668,739	3918,06
669,15	3950,82
669,561	3906,35
669,972	3976,57
670,383	3950,82
670,794	3880,61
671,205	3887,63
671,616	3927,42
672,027	3864,22
672,438	3794,01
672,849	3885,29
673,259	3875,93
673,67	3847,84
674,08	3822,09
674,491	3871,25
674,901	3929,76
675,312	3803,37
675,722	3906,35
676,133	3833,8
676,543	3829,12
676,953	3808,05
677,363	3824,44
677,773	3838,48
678,183	3777,62
678,593	3859,54
679,003	3808,05
679,413	3768,26
679,823	3831,46
680,233	3875,93
680,643	3791,67
681,052	3901,67
681,462	3730,81
681,872	3801,03
682,281	3747,2
682,691	3836,14
683,1	3705,07
683,509	3744,86
683,919	3700,39
684,328	3674,64
684,737	3812,73
685,146	3817,41
685,555	3705,07
685,964	3735,49
686,373	3646,55
686,782	3665,28
687,191	3611,45
687,6	3578,68
688,009	3559,95
688,417	3562,3
688,826	3693,37
689,235	3616,13
689,643	3604,42
690,052	3632,51
690,46	3576,34
690,869	3618,47
691,277	3669,96
691,685	3648,9
692,093	3700,39
692,502	3658,26
692,91	3726,13
693,318	3658,26
693,726	3667,62
694,134	3613,79
694,542	3620,81
694,949	3723,79
695,357	3602,08
695,765	3648,9
696,173	3653,58
696,58	3737,84
696,988	3653,58
697,395	3686,34
697,803	3625,49
698,21	3693,37
698,618	3688,68
699,025	3735,49
699,432	3574
699,839	3613,79
700,247	3599,74
700,654	3681,66
701,061	3559,95
701,468	3616,13
701,875	3550,59
702,281	3585,7
702,688	3571,66
703,095	3609,11
703,502	3637,19
703,908	3581,02
704,315	3662,94
704,722	3627,83
705,128	3632,51
705,534	3595,06
705,941	3641,87
706,347	3520,17
706,753	3581,02
707,16	3559,95
707,566	3522,51
707,972	3611,45
708,378	3639,53
708,784	3618,47
709,19	3651,24
709,596	3566,98
710,002	3555,27
710,407	3531,87
710,813	3571,66
711,219	3705,07
711,625	3597,4
712,03	3634,85
712,436	3576,34
712,841	3543,57
713,246	3531,87
713,652	3468,67
714,057	3585,7
714,462	3583,36
714,868	3557,61
715,273	3478,04
715,678	3557,61
716,083	3517,83
716,488	3452,29
716,893	3545,91
717,297	3445,27
717,702	3513,14
718,107	3522,51
718,512	3456,97
718,916	3461,65
719,321	3433,57
719,725	3473,36
720,13	3468,67
720,534	3431,23
720,939	3475,7
721,343	3522,51
721,747	3541,23
722,151	3487,4
722,556	3426,54
722,96	3473,36
723,364	3520,17
723,768	3473,36
724,172	3435,91
724,576	3456,97
724,979	3456,97
725,383	3461,65
725,787	3494,42
726,19	3456,97
726,594	3454,63
726,998	3454,63
727,401	3442,93
727,805	3501,44
728,208	3482,72
728,611	3442,93
729,014	3489,74
729,418	3424,2
729,821	3480,38
730,224	3419,52
730,627	3447,61
731,03	3513,14
731,433	3452,29
731,836	3405,48
732,239	3463,99
732,641	3459,31
733,044	3431,23
733,447	3508,46
733,849	3489,74
734,252	3438,25
734,654	3478,04
735,057	3534,21
735,459	3475,7
735,862	3424,2
736,264	3445,27
736,666	3431,23
737,068	3496,76
737,47	3449,95
737,872	3428,88
738,274	3531,87
738,676	3431,23
739,078	3389,1
739,48	3389,1
739,882	3417,18
740,284	3445,27
740,685	3417,18
741,087	3405,48
741,488	3471,01
741,89	3442,93
742,291	3438,25
742,693	3396,12
743,094	3438,25
743,495	3386,76
743,897	3386,76
744,298	3487,4
744,699	3396,12
745,1	3407,82
745,501	3428,88
745,902	3489,74
746,303	3445,27
746,704	3447,61
747,105	3400,8
747,505	3440,59
747,906	3452,29
748,307	3452,29
748,707	3389,1
749,108	3431,23
749,508	3375,05
749,908	3475,7
750,309	3475,7
750,709	3410,16
751,109	3454,63
751,51	3384,41
751,91	3370,37
752,31	3435,91
752,71	3478,04
753,11	3400,8
753,51	3459,31
753,909	3438,25
754,309	3466,33
754,709	3431,23
755,109	3449,95
755,508	3468,67
755,908	3417,18
756,307	3379,73
756,707	3435,91
757,106	3435,91
757,505	3398,46
757,905	3424,2
758,304	3433,57
758,703	3349,31
759,102	3316,54
759,501	3297,81
759,9	3190,15
760,299	3213,56
760,698	3199,51
761,097	3122,27
761,496	3178,45
761,895	3199,51
762,293	3164,4
762,692	3157,38
763,09	3197,17
763,489	3178,45
763,887	3185,47
764,286	3222,92
764,684	3201,85
765,082	3201,85
765,481	3267,39
765,879	3234,62
766,277	3225,26
766,675	3260,37
767,073	3288,45
767,471	3241,64
767,869	3323,56
768,267	3295,47
768,664	3243,98
769,062	3309,52
769,46	3295,47
769,857	3349,31
770,255	3316,54
770,653	3309,52
771,05	3314,2
771,447	3307,18
771,845	3274,41
772,242	3342,28
772,639	3243,98
773,036	3307,18
773,433	3248,66
773,831	3283,77
774,228	3255,69
774,624	3239,3
775,021	3267,39
775,418	3227,6
775,815	3279,09
776,212	3316,54
776,608	3274,41
777,005	3302,5
777,401	3269,73
777,798	3286,11
778,194	3272,07
778,591	3311,86
778,987	3241,64
779,383	3304,84
779,78	3232,28
780,176	3309,52
780,572	3302,5
780,968	3290,79
781,364	3204,19
781,76	3229,94
782,156	3243,98
782,551	3265,05
782,947	3248,66
783,343	3253,34
783,739	3251
784,134	3215,9
784,53	3255,69
784,925	3246,32
785,321	3197,17
785,716	3220,58
786,111	3197,17
786,507	3185,47
786,902	3236,96
787,297	3286,11
787,692	3283,77
788,087	3220,58
788,482	3248,66
788,877	3232,28
789,272	3204,19
789,667	3194,83
790,061	3297,81
790,456	3325,9
790,851	3243,98
791,245	3239,3
791,64	3225,26
792,034	3272,07
792,429	3267,39
792,823	3276,75
793,217	3152,7
793,612	3211,21
794,006	3187,81
794,4	3148,02
794,794	3208,87
795,188	3213,56
795,582	3176,11
795,976	3211,21
796,37	3173,77
796,763	3204,19
797,157	3215,9
797,551	3164,4
797,944	3171,43
798,338	3199,51
798,731	3187,81
799,125	3187,81
799,518	3213,56
799,912	3162,06
800,305	3251
800,698	3178,45
801,091	3141
801,484	3126,96
801,877	3171,43
802,27	3187,81
802,663	3126,96
803,056	3220,58
803,449	3204,19
803,842	3185,47
804,235	3159,72
804,627	3157,38
805,02	3180,79
805,412	3150,36
805,805	3201,85
806,197	3150,36
806,59	3267,39
806,982	3218,24
807,374	3201,85
807,766	3208,87
808,159	3126,96
808,551	3246,32
808,943	3129,3
809,335	3166,74
809,727	3162,06
810,118	3152,7
810,51	3180,79
810,902	3243,98
811,294	3215,9
811,685	3110,57
812,077	3148,02
812,468	3180,79
812,86	3164,4
813,251	3243,98
813,643	3164,4
814,034	3178,45
814,425	3124,62
814,816	3133,98
815,207	3229,94
815,598	3241,64
815,989	3089,51
816,38	3185,47
816,771	3138,66
817,162	3185,47
817,553	3098,87
817,944	3124,62
818,334	3131,64
818,725	3164,4
819,115	3155,04
819,506	3133,98
819,896	3152,7
820,287	3117,59
820,677	3232,28
821,067	3133,98
821,457	3190,15
821,848	3166,74
822,238	3129,3
822,628	3164,4
823,018	3171,43
823,408	3213,56
823,797	3089,51
824,187	3005,25
824,577	3204,19
824,967	3124,62
825,356	3131,64
825,746	3190,15
826,135	3133,98
826,525	3117,59
826,914	3138,66
827,304	3150,36
827,693	3157,38
828,082	3162,06
828,471	3157,38
828,86	3234,62
829,249	3183,13
829,638	3131,64
830,027	3194,83
830,416	3169,09
830,805	3145,68
831,194	3110,57
831,582	3117,59
831,971	3141
832,36	3141
832,748	3157,38
833,137	3150,36
833,525	3176,11
833,914	3145,68
834,302	3126,96
834,69	3103,55
835,078	3136,32
835,466	3108,23
835,854	3105,89
836,243	3115,25
836,63	3155,04
837,018	3148,02
837,406	3129,3
837,794	3110,57
838,182	3129,3
838,569	3157,38
838,957	3117,59
839,345	3183,13
839,732	3112,91
840,12	3098,87
840,507	3145,68
840,894	3166,74
841,282	3143,34
841,669	3122,27
842,056	3176,11
842,443	3105,89
842,83	3155,04
843,217	3101,21
843,604	3141
843,991	3141
844,378	3143,34
844,764	3129,3
845,151	3094,19
845,538	3136,32
845,924	3108,23
846,311	3171,43
846,697	3131,64
847,084	3150,36
847,47	3143,34
847,856	3171,43
848,242	3129,3
848,629	3103,55
849,015	3103,55
849,401	3129,3
849,787	3101,21
850,173	3080,14
850,559	3169,09
850,944	3075,46
851,33	3098,87
851,716	3094,19
852,102	3096,53
852,487	3136,32
852,873	3098,87
853,258	3110,57
853,644	3159,72
854,029	3129,3
854,414	3087,17
854,799	3077,8
855,185	3155,04
855,57	3070,78
855,955	3047,38
856,34	3096,53
856,725	3073,12
857,11	3105,89
857,495	3059,08
857,879	3112,91
858,264	3129,3
858,649	3070,78
859,033	3101,21
859,418	3148,02
859,802	3084,83
860,187	3169,09
860,571	3096,53
860,955	3084,83
861,34	3080,14
861,724	3126,96
862,108	3061,42
862,492	3105,89
862,876	3108,23
863,26	3049,72
863,644	3068,44
864,028	3082,49
864,412	3105,89
864,795	3101,21
865,179	3115,25
865,563	3133,98
865,946	3038,02
866,33	3054,4
866,713	3155,04
867,097	3054,4
867,48	3082,49
867,863	3084,83
868,246	3080,14
868,629	2979,5
869,013	3108,23
869,396	3094,19
869,779	3070,78
870,161	3073,12
870,544	3136,32
870,927	3073,12
871,31	3122,27
871,693	3148,02
872,075	3028,65
872,458	3002,91
872,84	3103,55
873,223	3089,51
873,605	3070,78
873,987	3084,83
874,37	3073,12
874,752	3145,68
875,134	3054,4
875,516	3119,93
875,898	3094,19
876,28	3070,78
876,662	3068,44
877,044	3056,74
877,426	3023,97
877,807	3117,59
878,189	3077,8
878,571	3040,36
878,952	3098,87
879,334	3087,17
879,715	3035,67
880,097	3096,53
880,478	3045,04
880,859	3059,08
881,24	3082,49
881,622	3098,87
882,003	3073,12
882,384	3075,46
882,765	3096,53
883,146	3056,74
883,526	3045,04
883,907	3075,46
884,288	3052,06
884,669	3087,17
885,049	3052,06
885,43	3094,19
885,81	3131,64
886,191	3119,93
886,571	3030,99
886,952	3035,67
887,332	3084,83
887,712	3066,1
888,092	3023,97
888,472	3073,12
888,852	3164,4
889,232	3145,68
889,612	3033,33
889,992	3124,62
890,372	3089,51
890,752	3026,31
891,131	3091,85
891,511	3119,93
891,89	3063,76
892,27	3115,25
892,649	3108,23
893,029	3080,14
893,408	3098,87
893,787	3089,51
894,167	3068,44
894,546	3105,89
894,925	3124,62
895,304	3091,85
895,683	3082,49
896,062	3077,8
896,441	3059,08
896,819	3016,95
897,198	3033,33
897,577	3056,74
897,955	3133,98
898,334	3063,76
898,712	3122,27
899,091	3059,08
899,469	3155,04
899,848	3040,36
900,226	3066,1
900,604	3080,14
900,982	2993,55
901,36	3021,63
901,738	3045,04
902,116	3028,65
902,494	3101,21
902,872	3016,95
903,25	3082,49
903,628	3052,06
904,005	3052,06
904,383	3056,74
904,76	3042,7
905,138	3075,46
905,515	3016,95
905,893	3021,63
906,27	3070,78
906,647	3096,53
907,024	3009,93
907,402	3047,38
907,779	3059,08
908,156	3049,72
908,533	3012,27
908,91	3122,27
909,286	3122,27
909,663	3077,8
910,04	3040,36
910,417	3049,72
910,793	3061,42
911,17	3000,57
911,546	3045,04
911,923	3021,63
912,299	3049,72
912,675	2960,78
913,051	3122,27
913,428	2995,89
913,804	3007,59
914,18	2998,23
914,556	3070,78
914,932	3070,78
915,308	3059,08
915,683	3080,14
916,059	3009,93
916,435	3105,89
916,811	3040,36
917,186	3002,91
917,562	3030,99
917,937	3028,65
918,313	3030,99
918,688	3012,27
919,063	3110,57
919,438	2956,1
919,814	3098,87
920,189	3026,31
920,564	3021,63
920,939	3047,38
921,314	2984,18
921,689	3082,49
922,063	3084,83
922,438	3110,57
922,813	3009,93
923,187	3115,25
923,562	3042,7
923,936	3009,93
924,311	3052,06
924,685	3038,02
925,06	3054,4
925,434	3077,8
925,808	3075,46
926,182	3096,53
926,556	3084,83
926,93	3047,38
927,304	3045,04
927,678	3066,1
928,052	3016,95
928,426	3038,02
928,8	3028,65
929,173	3014,61
929,547	3042,7
929,92	3108,23
930,294	3028,65
930,667	3061,42
931,041	3026,31
931,414	2956,1
931,787	3030,99
932,161	3094,19
932,534	3035,67
932,907	3052,06
933,28	3045,04
933,653	3063,76
934,026	3038,02
934,398	3033,33
934,771	3012,27
935,144	3019,29
935,517	3014,61
935,889	3019,29
936,262	2960,78
936,634	3026,31
937,007	3122,27
937,379	3040,36
937,751	2986,52
938,123	2995,89
938,496	3005,25
938,868	3056,74
939,24	3012,27
939,612	3002,91
939,984	2998,23
940,355	3016,95
940,727	2986,52
941,099	3016,95
941,471	3101,21
941,842	3038,02
942,214	3080,14
942,585	3012,27
942,957	3061,42
943,328	3094,19
943,7	3056,74
944,071	3030,99
944,442	3101,21
944,813	3059,08
945,184	3019,29
945,555	3033,33
945,926	3068,44
946,297	3023,97
946,668	3035,67
947,039	2967,8
947,409	3063,76
947,78	3016,95
948,151	3073,12
948,521	3061,42
948,892	2970,14
949,262	3019,29
949,633	3056,74
950,003	3052,06
950,373	2993,55
950,743	3023,97
951,113	2967,8
951,483	3098,87
951,853	3096,53
952,223	2979,5
952,593	3045,04
952,963	3049,72
953,333	3012,27
953,702	3040,36
954,072	2981,84
954,442	3014,61
954,811	3049,72
955,181	3073,12
955,55	3012,27
955,919	3075,46
956,289	3002,91
956,658	3012,27
957,027	3038,02
957,396	3045,04
957,765	3042,7
958,134	2984,18
958,503	3040,36
958,872	3070,78
959,24	3038,02
959,609	3016,95
959,978	3026,31
960,346	2993,55
960,715	3021,63
961,083	2991,2
961,452	3005,25
961,82	3070,78
962,188	3059,08
962,557	3007,59
962,925	3056,74
963,293	3026,31
963,661	3054,4
964,029	3021,63
964,397	2986,52
964,765	3019,29
965,133	3028,65
965,5	2967,8
965,868	3054,4
966,236	3030,99
966,603	3023,97
966,971	3094,19
967,338	3012,27
967,706	3061,42
968,073	3030,99
968,44	3059,08
968,807	3070,78
969,174	3016,95
969,542	3007,59
969,909	2988,86
970,275	3030,99
970,642	3068,44
971,009	3014,61
971,376	2995,89
971,743	3009,93
972,109	3012,27
972,476	3059,08
972,842	3073,12
973,209	2974,82
973,575	2981,84
973,942	3026,31
974,308	3002,91
974,674	3000,57
975,04	3110,57
975,406	2972,48
975,772	3019,29
976,138	3077,8
976,504	3075,46
976,87	3047,38
977,236	2958,44
977,602	2977,16
977,967	3040,36
978,333	3033,33
978,698	3061,42
979,064	3087,17
979,429	3045,04
979,795	3059,08
980,16	2970,14
980,525	3063,76
980,89	3073,12
981,255	3019,29
981,621	3021,63
981,986	2991,2
982,35	3056,74
982,715	2991,2
983,08	3000,57
983,445	2993,55
983,81	3009,93
984,174	3052,06
984,539	3047,38
984,903	2981,84
985,268	3016,95
985,632	3052,06
985,996	3030,99
986,361	3019,29
986,725	3019,29
987,089	3038,02
987,453	3077,8
987,817	3035,67
988,181	2977,16
988,545	3009,93
988,909	3042,7
989,272	3035,67
989,636	3005,25
990	2988,86
990,363	3019,29
990,727	3049,72
991,09	2981,84
991,454	3021,63
991,817	3103,55
992,18	3005,25
992,543	2993,55
992,907	3047,38
993,27	3068,44
993,633	3052,06
993,996	3040,36
994,359	3045,04
994,721	3023,97
995,084	3012,27
995,447	3002,91
995,81	3063,76
996,172	3005,25
996,535	3021,63
996,897	3012,27
997,259	2974,82
997,622	3052,06
997,984	3040,36
998,346	3101,21
998,708	3016,95
999,071	3026,31
999,433	3021,63
999,795	3021,63
1000,156	2986,52
1000,518	3038,02
1000,88	3028,65
1001,242	2998,23
1001,603	3016,95
1001,965	3012,27
1002,327	3042,7
1002,688	2944,39
1003,049	3038,02
1003,411	2995,89
1003,772	3040,36
1004,133	3035,67
1004,495	3066,1
1004,856	3052,06
1005,217	3045,04
1005,578	3045,04
1005,939	2981,84
1006,299	3023,97
1006,66	3021,63
1007,021	3098,87
1007,382	3005,25
1007,742	3014,61
1008,103	2993,55
1008,463	2965,46
1008,824	2993,55
1009,184	3030,99
1009,544	3007,59
1009,904	3068,44
1010,265	3030,99
1010,625	3035,67
1010,985	3077,8
1011,345	3066,1
1011,705	3021,63
1012,065	3110,57
1012,424	3042,7
1012,784	3035,67
1013,144	3047,38
1013,503	2951,42
1013,863	3033,33
1014,222	3049,72
1014,582	2986,52
1014,941	3014,61
1015,3	3009,93
1015,66	2988,86
1016,019	3026,31
1016,378	3016,95
1016,737	3016,95
1017,096	3009,93
1017,455	3023,97
1017,814	3009,93
1018,173	3084,83
1018,531	2991,2
1018,89	3066,1
1019,249	2974,82
1019,607	3023,97
1019,966	3005,25
1020,324	3089,51
1020,682	3005,25
1021,041	3007,59
1021,399	3049,72
1021,757	3002,91
1022,115	3040,36
1022,473	3049,72
1022,831	3028,65
1023,189	3030,99
1023,547	3049,72
1023,905	3030,99
1024,263	3063,76
1024,62	3019,29
1024,978	3007,59
1025,335	2965,46
1025,693	2998,23
1026,05	3000,57
1026,408	3033,33
1026,765	3056,74
1027,122	3059,08
1027,479	3042,7
1027,837	3042,7
1028,194	3026,31
1028,551	3028,65
1028,908	3012,27
1029,264	3035,67
1029,621	3063,76
1029,978	3042,7
1030,335	3066,1
1030,691	3002,91
1031,048	3019,29
1031,404	2991,2
1031,761	3012,27
1032,117	2986,52
1032,473	3012,27
1032,83	3023,97
1033,186	3014,61
1033,542	3035,67
1033,898	2960,78
1034,254	2970,14
1034,61	2970,14
1034,966	2970,14
